3997.85540,0.98034
3995.92686,0.98017
3993.99833,0.98017
3992.06979,0.98020
3990.14125,0.98021
3988.21272,0.98020
3986.28418,0.98014
3984.35565,0.98007
3982.42711,0.98012
3980.49857,0.98021
3978.57004,0.98018
3976.64150,0.98011
3974.71297,0.98010
3972.78443,0.98014
3970.85589,0.98021
3968.92736,0.98034
3966.99882,0.98040
3965.07029,0.98032
3963.14175,0.98016
3961.21321,0.98013
3959.28468,0.98027
3957.35614,0.98043
3955.42760,0.98045
3953.49907,0.98034
3951.57053,0.98027
3949.64200,0.98037
3947.71346,0.98049
3945.78492,0.98043
3943.85639,0.98031
3941.92785,0.98034
3939.99932,0.98051
3938.07078,0.98069
3936.14224,0.98072
3934.21371,0.98061
3932.28517,0.98055
3930.35663,0.98063
3928.42810,0.98070
3926.49956,0.98065
3924.57103,0.98061
3922.64249,0.98064
3920.71395,0.98060
3918.78542,0.98052
3916.85688,0.98061
3914.92835,0.98080
3912.99981,0.98088
3911.07127,0.98079
3909.14274,0.98057
3907.21420,0.98020
3905.28566,0.97981
3903.35713,0.97969
3901.42859,0.97985
3899.50006,0.98018
3897.57152,0.98046
3895.64298,0.98043
3893.71445,0.98016
3891.78591,0.98016
3889.85738,0.98053
3887.92884,0.98060
3886.00030,0.98035
3884.07177,0.98023
3882.14323,0.98030
3880.21470,0.98059
3878.28616,0.98090
3876.35762,0.98082
3874.42909,0.98048
3872.50055,0.98018
3870.57201,0.98014
3868.64348,0.98044
3866.71494,0.98063
3864.78641,0.98065
3862.85787,0.98090
3860.92933,0.98117
3859.00080,0.98098
3857.07226,0.98038
3855.14373,0.97970
3853.21519,0.97972
3851.28665,0.98052
3849.35812,0.98101
3847.42958,0.98112
3845.50104,0.98105
3843.57251,0.98093
3841.64397,0.98060
3839.71544,0.98002
3837.78690,0.97993
3835.85836,0.98045
3833.92983,0.98087
3832.00129,0.98107
3830.07276,0.98110
3828.14422,0.98103
3826.21568,0.98096
3824.28715,0.98076
3822.35861,0.98035
3820.43008,0.98031
3818.50154,0.98066
3816.57300,0.98094
3814.64447,0.98129
3812.71593,0.98146
3810.78739,0.98136
3808.85886,0.98114
3806.93032,0.98100
3805.00179,0.98090
3803.07325,0.98045
3801.14471,0.98015
3799.21618,0.98046
3797.28764,0.98085
3795.35911,0.98140
3793.43057,0.98187
3791.50203,0.98197
3789.57350,0.98182
3787.64496,0.98165
3785.71642,0.98155
3783.78789,0.98160
3781.85935,0.98162
3779.93082,0.98161
3778.00228,0.98179
3776.07374,0.98199
3774.14521,0.98196
3772.21667,0.98173
3770.28814,0.98153
3768.35960,0.98155
3766.43106,0.98162
3764.50253,0.98167
3762.57399,0.98160
3760.64546,0.98136
3758.71692,0.98115
3756.78838,0.98114
3754.85985,0.98105
3752.93131,0.98055
3751.00277,0.97986
3749.07424,0.97989
3747.14570,0.98012
3745.21717,0.98028
3743.28863,0.98060
3741.36009,0.98068
3739.43156,0.98030
3737.50302,0.97948
3735.57449,0.97873
3733.64595,0.97889
3731.71741,0.97928
3729.78888,0.97931
3727.86034,0.97915
3725.93180,0.97902
3724.00327,0.97917
3722.07473,0.97969
3720.14620,0.98052
3718.21766,0.98125
3716.28912,0.98148
3714.36059,0.98116
3712.43205,0.98051
3710.50352,0.98028
3708.57498,0.98064
3706.64644,0.98075
3704.71791,0.98056
3702.78937,0.98036
3700.86084,0.98031
3698.93230,0.98039
3697.00376,0.98051
3695.07523,0.98047
3693.14669,0.98010
3691.21815,0.97955
3689.28962,0.97960
3687.36108,0.98037
3685.43255,0.98084
3683.50401,0.98089
3681.57547,0.98066
3679.64694,0.98027
3677.71840,0.97970
3675.78987,0.97932
3673.86133,0.97958
3671.93279,0.97975
3670.00426,0.97998
3668.07572,0.98059
3666.14718,0.98093
3664.21865,0.98095
3662.29011,0.98082
3660.36158,0.98051
3658.43304,0.98006
3656.50450,0.97968
3654.57597,0.97952
3652.64743,0.97920
3650.71890,0.97832
3648.79036,0.97761
3646.86182,0.97816
3644.93329,0.97861
3643.00475,0.97868
3641.07622,0.97870
3639.14768,0.97868
3637.21914,0.97849
3635.29061,0.97814
3633.36207,0.97769
3631.43353,0.97709
3629.50500,0.97643
3627.57646,0.97637
3625.64793,0.97674
3623.71939,0.97686
3621.79085,0.97670
3619.86232,0.97651
3617.93378,0.97654
3616.00525,0.97653
3614.07671,0.97642
3612.14817,0.97637
3610.21964,0.97626
3608.29110,0.97602
3606.36256,0.97588
3604.43403,0.97582
3602.50549,0.97563
3600.57696,0.97538
3598.64842,0.97526
3596.71988,0.97518
3594.79135,0.97516
3592.86281,0.97521
3590.93428,0.97509
3589.00574,0.97474
3587.07720,0.97464
3585.14867,0.97495
3583.22013,0.97508
3581.29160,0.97502
3579.36306,0.97492
3577.43452,0.97475
3575.50599,0.97455
3573.57745,0.97440
3571.64891,0.97420
3569.72038,0.97370
3567.79184,0.97292
3565.86331,0.97264
3563.93477,0.97301
3562.00623,0.97322
3560.07770,0.97312
3558.14916,0.97295
3556.22063,0.97271
3554.29209,0.97231
3552.36355,0.97192
3550.43502,0.97166
3548.50648,0.97134
3546.57794,0.97097
3544.64941,0.97079
3542.72087,0.97075
3540.79234,0.97064
3538.86380,0.97038
3536.93526,0.97005
3535.00673,0.96977
3533.07819,0.96953
3531.14966,0.96924
3529.22112,0.96888
3527.29258,0.96847
3525.36405,0.96808
3523.43551,0.96781
3521.50697,0.96768
3519.57844,0.96751
3517.64990,0.96726
3515.72137,0.96705
3513.79283,0.96682
3511.86429,0.96651
3509.93576,0.96616
3508.00722,0.96588
3506.07869,0.96554
3504.15015,0.96507
3502.22161,0.96478
3500.29308,0.96473
3498.36454,0.96458
3496.43601,0.96432
3494.50747,0.96411
3492.57893,0.96389
3490.65040,0.96353
3488.72186,0.96311
3486.79332,0.96281
3484.86479,0.96259
3482.93625,0.96232
3481.00772,0.96203
3479.07918,0.96184
3477.15064,0.96165
3475.22211,0.96137
3473.29357,0.96104
3471.36504,0.96071
3469.43650,0.96047
3467.50796,0.96025
3465.57943,0.95988
3463.65089,0.95942
3461.72235,0.95908
3459.79382,0.95885
3457.86528,0.95867
3455.93675,0.95845
3454.00821,0.95816
3452.07967,0.95788
3450.15114,0.95758
3448.22260,0.95718
3446.29407,0.95687
3444.36553,0.95676
3442.43699,0.95670
3440.50846,0.95656
3438.57992,0.95629
3436.65139,0.95594
3434.72285,0.95556
3432.79431,0.95520
3430.86578,0.95494
3428.93724,0.95474
3427.00870,0.95450
3425.08017,0.95413
3423.15163,0.95374
3421.22310,0.95345
3419.29456,0.95325
3417.36602,0.95303
3415.43749,0.95276
3413.50895,0.95251
3411.58042,0.95230
3409.65188,0.95206
3407.72334,0.95175
3405.79481,0.95143
3403.86627,0.95121
3401.93773,0.95114
3400.00920,0.95109
3398.08066,0.95090
3396.15213,0.95062
3394.22359,0.95033
3392.29505,0.95004
3390.36652,0.94982
3388.43798,0.94965
3386.50945,0.94946
3384.58091,0.94920
3382.65237,0.94888
3380.72384,0.94857
3378.79530,0.94831
3376.86677,0.94808
3374.93823,0.94784
3373.00969,0.94770
3371.08116,0.94764
3369.15262,0.94746
3367.22408,0.94712
3365.29555,0.94678
3363.36701,0.94654
3361.43848,0.94640
3359.50994,0.94628
3357.58140,0.94608
3355.65287,0.94584
3353.72433,0.94558
3351.79580,0.94526
3349.86726,0.94497
3347.93872,0.94474
3346.01019,0.94445
3344.08165,0.94412
3342.15311,0.94388
3340.22458,0.94372
3338.29604,0.94353
3336.36751,0.94323
3334.43897,0.94284
3332.51043,0.94248
3330.58190,0.94222
3328.65336,0.94202
3326.72483,0.94178
3324.79629,0.94143
3322.86775,0.94107
3320.93922,0.94076
3319.01068,0.94039
3317.08215,0.93990
3315.15361,0.93933
3313.22507,0.93874
3311.29654,0.93824
3309.36800,0.93775
3307.43946,0.93720
3305.51093,0.93656
3303.58239,0.93582
3301.65386,0.93506
3299.72532,0.93442
3297.79678,0.93389
3295.86825,0.93345
3293.93971,0.93300
3292.01118,0.93242
3290.08264,0.93183
3288.15410,0.93133
3286.22557,0.93086
3284.29703,0.93040
3282.36849,0.92986
3280.43996,0.92921
3278.51142,0.92862
3276.58289,0.92817
3274.65435,0.92769
3272.72581,0.92701
3270.79728,0.92622
3268.86874,0.92542
3266.94021,0.92455
3265.01167,0.92360
3263.08313,0.92263
3261.15460,0.92165
3259.22606,0.92073
3257.29753,0.91992
3255.36899,0.91917
3253.44045,0.91838
3251.51192,0.91767
3249.58338,0.91714
3247.65484,0.91666
3245.72631,0.91613
3243.79777,0.91562
3241.86924,0.91527
3239.94070,0.91500
3238.01216,0.91473
3236.08363,0.91450
3234.15509,0.91420
3232.22656,0.91381
3230.29802,0.91344
3228.36948,0.91309
3226.44095,0.91264
3224.51241,0.91219
3222.58387,0.91189
3220.65534,0.91163
3218.72680,0.91126
3216.79827,0.91080
3214.86973,0.91047
3212.94119,0.91034
3211.01266,0.91025
3209.08412,0.91005
3207.15559,0.90981
3205.22705,0.90970
3203.29851,0.90976
3201.36998,0.90982
3199.44144,0.90979
3197.51290,0.90978
3195.58437,0.90990
3193.65583,0.91012
3191.72730,0.91037
3189.79876,0.91057
3187.87022,0.91075
3185.94169,0.91096
3184.01315,0.91123
3182.08462,0.91153
3180.15608,0.91184
3178.22754,0.91215
3176.29901,0.91249
3174.37047,0.91297
3172.44194,0.91350
3170.51340,0.91389
3168.58486,0.91415
3166.65633,0.91438
3164.72779,0.91461
3162.79925,0.91483
3160.87072,0.91498
3158.94218,0.91501
3157.01365,0.91503
3155.08511,0.91515
3153.15657,0.91518
3151.22804,0.91492
3149.29950,0.91447
3147.37097,0.91408
3145.44243,0.91382
3143.51389,0.91358
3141.58536,0.91333
3139.65682,0.91301
3137.72828,0.91259
3135.79975,0.91210
3133.87121,0.91152
3131.94268,0.91088
3130.01414,0.91033
3128.08560,0.90995
3126.15707,0.90966
3124.22853,0.90935
3122.30000,0.90897
3120.37146,0.90856
3118.44292,0.90823
3116.51439,0.90798
3114.58585,0.90773
3112.65732,0.90746
3110.72878,0.90724
3108.80024,0.90713
3106.87171,0.90712
3104.94317,0.90717
3103.01463,0.90721
3101.08610,0.90726
3099.15756,0.90739
3097.22903,0.90759
3095.30049,0.90778
3093.37195,0.90798
3091.44342,0.90819
3089.51488,0.90834
3087.58635,0.90844
3085.65781,0.90852
3083.72927,0.90859
3081.80074,0.90874
3079.87220,0.90899
3077.94366,0.90919
3076.01513,0.90928
3074.08659,0.90932
3072.15806,0.90938
3070.22952,0.90944
3068.30098,0.90951
3066.37245,0.90955
3064.44391,0.90961
3062.51538,0.90975
3060.58684,0.90998
3058.65830,0.91027
3056.72977,0.91063
3054.80123,0.91117
3052.87270,0.91188
3050.94416,0.91262
3049.01562,0.91337
3047.08709,0.91413
3045.15855,0.91485
3043.23001,0.91554
3041.30148,0.91625
3039.37294,0.91695
3037.44441,0.91765
3035.51587,0.91833
3033.58733,0.91897
3031.65880,0.91955
3029.73026,0.92017
3027.80173,0.92087
3025.87319,0.92160
3023.94465,0.92225
3022.01612,0.92285
3020.08758,0.92352
3018.15904,0.92427
3016.23051,0.92502
3014.30197,0.92575
3012.37344,0.92649
3010.44490,0.92720
3008.51636,0.92784
3006.58783,0.92843
3004.65929,0.92895
3002.73076,0.92944
3000.80222,0.92990
2998.87368,0.93031
2996.94515,0.93068
2995.01661,0.93097
2993.08808,0.93109
2991.15954,0.93105
2989.23100,0.93093
2987.30247,0.93070
2985.37393,0.93024
2983.44539,0.92952
2981.51686,0.92868
2979.58832,0.92770
2977.65979,0.92639
2975.73125,0.92469
2973.80271,0.92263
2971.87418,0.92026
2969.94564,0.91771
2968.01711,0.91505
2966.08857,0.91237
2964.16003,0.90988
2962.23150,0.90775
2960.30296,0.90612
2958.37442,0.90493
2956.44589,0.90420
2954.51735,0.90404
2952.58882,0.90444
2950.66028,0.90516
2948.73174,0.90587
2946.80321,0.90616
2944.87467,0.90566
2942.94614,0.90418
2941.01760,0.90181
2939.08906,0.89879
2937.16053,0.89537
2935.23199,0.89169
2933.30346,0.88790
2931.37492,0.88428
2929.44638,0.88113
2927.51785,0.87872
2925.58931,0.87741
2923.66077,0.87755
2921.73224,0.87917
2919.80370,0.88200
2917.87517,0.88561
2915.94663,0.88963
2914.01809,0.89370
2912.08956,0.89752
2910.16102,0.90089
2908.23249,0.90377
2906.30395,0.90636
2904.37541,0.90884
2902.44688,0.91125
2900.51834,0.91355
2898.58980,0.91573
2896.66127,0.91784
2894.73273,0.91989
2892.80420,0.92187
2890.87566,0.92375
2888.94712,0.92546
2887.01859,0.92700
2885.09005,0.92828
2883.16152,0.92911
2881.23298,0.92946
2879.30444,0.92934
2877.37591,0.92883
2875.44737,0.92802
2873.51883,0.92707
2871.59030,0.92618
2869.66176,0.92554
2867.73323,0.92508
2865.80469,0.92452
2863.87615,0.92347
2861.94762,0.92176
2860.01908,0.91956
2858.09055,0.91730
2856.16201,0.91553
2854.23347,0.91487
2852.30494,0.91580
2850.37640,0.91836
2848.44787,0.92213
2846.51933,0.92639
2844.59079,0.93061
2842.66226,0.93455
2840.73372,0.93808
2838.80518,0.94115
2836.87665,0.94374
2834.94811,0.94591
2833.01958,0.94771
2831.09104,0.94912
2829.16250,0.95024
2827.23397,0.95122
2825.30543,0.95206
2823.37690,0.95276
2821.44836,0.95339
2819.51982,0.95402
2817.59129,0.95456
2815.66275,0.95495
2813.73421,0.95532
2811.80568,0.95576
2809.87714,0.95620
2807.94861,0.95652
2806.02007,0.95678
2804.09153,0.95706
2802.16300,0.95735
2800.23446,0.95766
2798.30593,0.95797
2796.37739,0.95821
2794.44885,0.95838
2792.52032,0.95860
2790.59178,0.95891
2788.66325,0.95919
2786.73471,0.95941
2784.80617,0.95965
2782.87764,0.95993
2780.94910,0.96023
2779.02056,0.96053
2777.09203,0.96081
2775.16349,0.96105
2773.23496,0.96126
2771.30642,0.96145
2769.37788,0.96166
2767.44935,0.96186
2765.52081,0.96201
2763.59228,0.96212
2761.66374,0.96225
2759.73520,0.96240
2757.80667,0.96254
2755.87813,0.96264
2753.94959,0.96274
2752.02106,0.96295
2750.09252,0.96318
2748.16399,0.96323
2746.23545,0.96309
2744.30691,0.96290
2742.37838,0.96279
2740.44984,0.96284
2738.52131,0.96299
2736.59277,0.96306
2734.66423,0.96298
2732.73570,0.96289
2730.80716,0.96299
2728.87863,0.96333
2726.95009,0.96374
2725.02155,0.96392
2723.09302,0.96389
2721.16448,0.96387
2719.23594,0.96396
2717.30741,0.96418
2715.37887,0.96443
2713.45034,0.96466
2711.52180,0.96491
2709.59326,0.96517
2707.66473,0.96534
2705.73619,0.96545
2703.80766,0.96556
2701.87912,0.96574
2699.95058,0.96594
2698.02205,0.96610
2696.09351,0.96619
2694.16497,0.96623
2692.23644,0.96630
2690.30790,0.96643
2688.37937,0.96657
2686.45083,0.96668
2684.52229,0.96675
2682.59376,0.96691
2680.66522,0.96719
2678.73669,0.96742
2676.80815,0.96751
2674.87961,0.96751
2672.95108,0.96751
2671.02254,0.96751
2669.09401,0.96751
2667.16547,0.96752
2665.23693,0.96752
2663.30840,0.96751
2661.37986,0.96750
2659.45132,0.96753
2657.52279,0.96759
2655.59425,0.96769
2653.66572,0.96780
2651.73718,0.96790
2649.80864,0.96798
2647.88011,0.96806
2645.95157,0.96819
2644.02304,0.96836
2642.09450,0.96849
2640.16596,0.96858
2638.23743,0.96869
2636.30889,0.96881
2634.38035,0.96891
2632.45182,0.96899
2630.52328,0.96914
2628.59475,0.96937
2626.66621,0.96960
2624.73767,0.96979
2622.80914,0.97000
2620.88060,0.97026
2618.95207,0.97048
2617.02353,0.97063
2615.09499,0.97074
2613.16646,0.97081
2611.23792,0.97087
2609.30939,0.97092
2607.38085,0.97097
2605.45231,0.97105
2603.52378,0.97113
2601.59524,0.97122
2599.66670,0.97136
2597.73817,0.97153
2595.80963,0.97160
2593.88110,0.97151
2591.95256,0.97138
2590.02402,0.97132
2588.09549,0.97132
2586.16695,0.97139
2584.23842,0.97148
2582.30988,0.97155
2580.38134,0.97163
2578.45281,0.97171
2576.52427,0.97180
2574.59573,0.97189
2572.66720,0.97189
2570.73866,0.97180
2568.81013,0.97178
2566.88159,0.97185
2564.95305,0.97189
2563.02452,0.97189
2561.09598,0.97185
2559.16745,0.97180
2557.23891,0.97171
2555.31037,0.97151
2553.38184,0.97131
2551.45330,0.97127
2549.52476,0.97131
2547.59623,0.97128
2545.66769,0.97130
2543.73916,0.97142
2541.81062,0.97151
2539.88208,0.97155
2537.95355,0.97158
2536.02501,0.97160
2534.09648,0.97171
2532.16794,0.97193
2530.23940,0.97211
2528.31087,0.97222
2526.38233,0.97228
2524.45380,0.97233
2522.52526,0.97241
2520.59672,0.97252
2518.66819,0.97261
2516.73965,0.97268
2514.81111,0.97273
2512.88258,0.97277
2510.95404,0.97282
2509.02551,0.97284
2507.09697,0.97283
2505.16843,0.97286
2503.23990,0.97294
2501.31136,0.97303
2499.38283,0.97310
2497.45429,0.97305
2495.52575,0.97290
2493.59722,0.97282
2491.66868,0.97292
2489.74014,0.97311
2487.81161,0.97333
2485.88307,0.97348
2483.95454,0.97349
2482.02600,0.97346
2480.09746,0.97347
2478.16893,0.97351
2476.24039,0.97353
2474.31186,0.97359
2472.38332,0.97369
2470.45478,0.97372
2468.52625,0.97369
2466.59771,0.97373
2464.66918,0.97386
2462.74064,0.97398
2460.81210,0.97403
2458.88357,0.97403
2456.95503,0.97400
2455.02649,0.97389
2453.09796,0.97379
2451.16942,0.97375
2449.24089,0.97373
2447.31235,0.97374
2445.38381,0.97381
2443.45528,0.97389
2441.52674,0.97398
2439.59821,0.97408
2437.66967,0.97410
2435.74113,0.97400
2433.81260,0.97391
2431.88406,0.97397
2429.95552,0.97405
2428.02699,0.97409
2426.09845,0.97413
2424.16992,0.97413
2422.24138,0.97409
2420.31284,0.97409
2418.38431,0.97408
2416.45577,0.97402
2414.52724,0.97399
2412.59870,0.97398
2410.67016,0.97394
2408.74163,0.97388
2406.81309,0.97382
2404.88456,0.97374
2402.95602,0.97370
2401.02748,0.97360
2399.09895,0.97342
2397.17041,0.97330
2395.24187,0.97322
2393.31334,0.97310
2391.38480,0.97298
2389.45627,0.97273
2387.52773,0.97213
2385.59919,0.97108
2383.67066,0.96961
2381.74212,0.96779
2379.81359,0.96554
2377.88505,0.96260
2375.95651,0.95901
2374.02798,0.95514
2372.09944,0.95097
2370.17090,0.94628
2368.24237,0.94161
2366.31383,0.93748
2364.38530,0.93400
2362.45676,0.93139
2360.52822,0.92996
2358.59969,0.93063
2356.67115,0.93402
2354.74262,0.93908
2352.81408,0.94480
2350.88554,0.94962
2348.95701,0.95162
2347.02847,0.95021
2345.09994,0.94634
2343.17140,0.94293
2341.24286,0.94192
2339.31433,0.94244
2337.38579,0.94336
2335.45725,0.94414
2333.52872,0.94449
2331.60018,0.94432
2329.67165,0.94386
2327.74311,0.94316
2325.81457,0.94243
2323.88604,0.94228
2321.95750,0.94296
2320.02897,0.94424
2318.10043,0.94576
2316.17189,0.94718
2314.24336,0.94844
2312.31482,0.94990
2310.38628,0.95188
2308.45775,0.95428
2306.52921,0.95681
2304.60068,0.95921
2302.67214,0.96119
2300.74360,0.96272
2298.81507,0.96398
2296.88653,0.96510
2294.95800,0.96607
2293.02946,0.96686
2291.10092,0.96756
2289.17239,0.96821
2287.24385,0.96878
2285.31532,0.96933
2283.38678,0.96988
2281.45824,0.97025
2279.52971,0.97039
2277.60117,0.97051
2275.67263,0.97065
2273.74410,0.97060
2271.81556,0.97042
2269.88703,0.97031
2267.95849,0.97040
2266.02995,0.97055
2264.10142,0.97046
2262.17288,0.97013
2260.24435,0.96998
2258.31581,0.97013
2256.38727,0.97034
2254.45874,0.97050
2252.53020,0.97056
2250.60166,0.97053
2248.67313,0.97071
2246.74459,0.97111
2244.81606,0.97131
2242.88752,0.97136
2240.95898,0.97169
2239.03045,0.97227
2237.10191,0.97268
2235.17338,0.97284
2233.24484,0.97304
2231.31630,0.97338
2229.38777,0.97360
2227.45923,0.97373
2225.53070,0.97403
2223.60216,0.97448
2221.67362,0.97486
2219.74509,0.97512
2217.81655,0.97512
2215.88801,0.97500
2213.95948,0.97515
2212.03094,0.97560
2210.10241,0.97602
2208.17387,0.97616
2206.24533,0.97609
2204.31680,0.97616
2202.38826,0.97638
2200.45973,0.97647
2198.53119,0.97640
2196.60265,0.97643
2194.67412,0.97667
2192.74558,0.97676
2190.81704,0.97673
2188.88851,0.97704
2186.95997,0.97743
2185.03144,0.97755
2183.10290,0.97788
2181.17436,0.97846
2179.24583,0.97876
2177.31729,0.97870
2175.38876,0.97848
2173.46022,0.97825
2171.53168,0.97806
2169.60315,0.97783
2167.67461,0.97763
2165.74607,0.97746
2163.81754,0.97736
2161.88900,0.97833
2159.96047,0.98079
2158.03193,0.98285
2156.10339,0.98316
2154.17486,0.98248
2152.24632,0.98169
2150.31779,0.98130
2148.38925,0.98137
2146.46071,0.98155
2144.53218,0.98154
2142.60364,0.98149
2140.67511,0.98163
2138.74657,0.98175
2136.81803,0.98174
2134.88950,0.98175
2132.96096,0.98162
2131.03242,0.98125
2129.10389,0.98080
2127.17535,0.98040
2125.24682,0.98001
2123.31828,0.97952
2121.38974,0.97895
2119.46121,0.97835
2117.53267,0.97765
2115.60414,0.97682
2113.67560,0.97590
2111.74706,0.97518
2109.81853,0.97493
2107.88999,0.97512
2105.96145,0.97555
2104.03292,0.97610
2102.10438,0.97668
2100.17585,0.97726
2098.24731,0.97798
2096.31877,0.97884
2094.39024,0.97943
2092.46170,0.97955
2090.53317,0.97948
2088.60463,0.97946
2086.67609,0.97956
2084.74756,0.97971
2082.81902,0.97980
2080.89049,0.97982
2078.96195,0.97986
2077.03341,0.98007
2075.10488,0.98035
2073.17634,0.98054
2071.24780,0.98065
2069.31927,0.98066
2067.39073,0.98062
2065.46220,0.98069
2063.53366,0.98084
2061.60512,0.98094
2059.67659,0.98098
2057.74805,0.98102
2055.81952,0.98106
2053.89098,0.98090
2051.96244,0.98066
2050.03391,0.98094
2048.10537,0.98167
2046.17683,0.98223
2044.24830,0.98258
2042.31976,0.98287
2040.39123,0.98285
2038.46269,0.98247
2036.53415,0.98210
2034.60562,0.98216
2032.67708,0.98277
2030.74855,0.98348
2028.82001,0.98369
2026.89147,0.98351
2024.96294,0.98347
2023.03440,0.98358
2021.10587,0.98364
2019.17733,0.98376
2017.24879,0.98409
2015.32026,0.98447
2013.39172,0.98441
2011.46318,0.98387
2009.53465,0.98346
2007.60611,0.98354
2005.67758,0.98389
2003.74904,0.98400
2001.82050,0.98363
1999.89197,0.98319
1997.96343,0.98302
1996.03490,0.98284
1994.10636,0.98252
1992.17782,0.98229
1990.24929,0.98211
1988.32075,0.98183
1986.39221,0.98159
1984.46368,0.98154
1982.53514,0.98144
1980.60661,0.98145
1978.67807,0.98207
1976.74953,0.98278
1974.82100,0.98288
1972.89246,0.98290
1970.96393,0.98327
1969.03539,0.98337
1967.10685,0.98290
1965.17832,0.98245
1963.24978,0.98236
1961.32125,0.98243
1959.39271,0.98239
1957.46417,0.98224
1955.53564,0.98202
1953.60710,0.98169
1951.67856,0.98146
1949.75003,0.98152
1947.82149,0.98155
1945.89296,0.98139
1943.96442,0.98129
1942.03588,0.98139
1940.10735,0.98154
1938.17881,0.98160
1936.25028,0.98140
1934.32174,0.98100
1932.39320,0.98071
1930.46467,0.98076
1928.53613,0.98089
1926.60759,0.98067
1924.67906,0.98018
1922.75052,0.97980
1920.82199,0.97966
1918.89345,0.97966
1916.96491,0.97983
1915.03638,0.97998
1913.10784,0.97989
1911.17931,0.97964
1909.25077,0.97948
1907.32223,0.97956
1905.39370,0.97963
1903.46516,0.97955
1901.53663,0.97955
1899.60809,0.97965
1897.67955,0.97965
1895.75102,0.97950
1893.82248,0.97939
1891.89394,0.97933
1889.96541,0.97924
1888.03687,0.97924
1886.10834,0.97941
1884.17980,0.97959
1882.25126,0.97969
1880.32273,0.97972
1878.39419,0.97967
1876.46566,0.97965
1874.53712,0.97969
1872.60858,0.97959
1870.68005,0.97926
1868.75151,0.97895
1866.82297,0.97893
1864.89444,0.97905
1862.96590,0.97905
1861.03737,0.97892
1859.10883,0.97878
1857.18029,0.97873
1855.25176,0.97865
1853.32322,0.97847
1851.39469,0.97830
1849.46615,0.97812
1847.53761,0.97787
1845.60908,0.97752
1843.68054,0.97724
1841.75200,0.97714
1839.82347,0.97699
1837.89493,0.97670
1835.96640,0.97633
1834.03786,0.97590
1832.10932,0.97532
1830.18079,0.97474
1828.25225,0.97463
1826.32372,0.97480
1824.39518,0.97481
1822.46664,0.97470
1820.53811,0.97464
1818.60957,0.97442
1816.68104,0.97386
1814.75250,0.97302
1812.82396,0.97205
1810.89543,0.97111
1808.96689,0.97049
1807.03835,0.97019
1805.10982,0.96998
1803.18128,0.96972
1801.25275,0.96944
1799.32421,0.96931
1797.39567,0.96932
1795.46714,0.96935
1793.53860,0.96945
1791.61007,0.96981
1789.68153,0.97026
1787.75299,0.97043
1785.82446,0.97040
1783.89592,0.97033
1781.96738,0.97026
1780.03885,0.97021
1778.11031,0.97026
1776.18178,0.97025
1774.25324,0.97004
1772.32470,0.96985
1770.39617,0.97004
1768.46763,0.97045
1766.53910,0.97077
1764.61056,0.97081
1762.68202,0.97065
1760.75349,0.97044
1758.82495,0.97018
1756.89642,0.96975
1754.96788,0.96920
1753.03934,0.96848
1751.11081,0.96737
1749.18227,0.96611
1747.25373,0.96514
1745.32520,0.96432
1743.39666,0.96353
1741.46813,0.96285
1739.53959,0.96232
1737.61105,0.96200
1735.68252,0.96179
1733.75398,0.96170
1731.82545,0.96188
1729.89691,0.96214
1727.96837,0.96238
1726.03984,0.96244
1724.11130,0.96232
1722.18276,0.96215
1720.25423,0.96189
1718.32569,0.96133
1716.39716,0.96094
1714.46862,0.96125
1712.54008,0.96158
1710.61155,0.96171
1708.68301,0.96166
1706.75448,0.96145
1704.82594,0.96123
1702.89740,0.96109
1700.96887,0.96082
1699.04033,0.96044
1697.11180,0.96031
1695.18326,0.96052
1693.25472,0.96071
1691.32619,0.96059
1689.39765,0.96021
1687.46911,0.95977
1685.54058,0.95923
1683.61204,0.95851
1681.68351,0.95816
1679.75497,0.95786
1677.82643,0.95730
1675.89790,0.95627
1673.96936,0.95489
1672.04083,0.95353
1670.11229,0.95202
1668.18375,0.95086
1666.25522,0.95022
1664.32668,0.94922
1662.39814,0.94764
1660.46961,0.94617
1658.54107,0.94489
1656.61254,0.94346
1654.68400,0.94122
1652.75546,0.93682
1650.82693,0.93394
1648.89839,0.93195
1646.96986,0.92833
1645.04132,0.92509
1643.11278,0.92360
1641.18425,0.92239
1639.25571,0.92095
1637.32718,0.91805
1635.39864,0.91143
1633.47010,0.90612
1631.54157,0.90481
1629.61303,0.90679
1627.68449,0.91233
1625.75596,0.91859
1623.82742,0.92347
1621.89889,0.92674
1619.97035,0.92812
1618.04181,0.92846
1616.11328,0.92828
1614.18474,0.92767
1612.25621,0.92659
1610.32767,0.92511
1608.39913,0.92367
1606.47060,0.92254
1604.54206,0.92145
1602.61352,0.92033
1600.68499,0.91968
1598.75645,0.91968
1596.82792,0.92016
1594.89938,0.92097
1592.97084,0.92193
1591.04231,0.92282
1589.11377,0.92338
1587.18524,0.92328
1585.25670,0.92224
1583.32816,0.92009
1581.39963,0.91701
1579.47109,0.91369
1577.54256,0.91101
1575.61402,0.91136
1573.68548,0.91510
1571.75695,0.91993
1569.82841,0.92684
1567.89987,0.93368
1565.97134,0.93770
1564.04280,0.94036
1562.11427,0.94205
1560.18573,0.94291
1558.25719,0.94312
1556.32866,0.94308
1554.40012,0.94382
1552.47159,0.94547
1550.54305,0.94794
1548.61451,0.95057
1546.68598,0.95225
1544.75744,0.95312
1542.82890,0.95368
1540.90037,0.95455
1538.97183,0.95603
1537.04330,0.95668
1535.11476,0.95690
1533.18622,0.95740
1531.25769,0.95809
1529.32915,0.95834
1527.40062,0.95813
1525.47208,0.95757
1523.54354,0.95669
1521.61501,0.95520
1519.68647,0.95395
1517.75793,0.95372
1515.82940,0.95430
1513.90086,0.95513
1511.97233,0.95561
1510.04379,0.95561
1508.11525,0.95517
1506.18672,0.95463
1504.25818,0.95391
1502.32965,0.95257
1500.40111,0.95015
1498.47257,0.94622
1496.54404,0.94144
1494.61550,0.93823
1492.68697,0.93671
1490.75843,0.93601
1488.82989,0.93638
1486.90136,0.93757
1484.97282,0.93875
1483.04428,0.93992
1481.11575,0.94119
1479.18721,0.94216
1477.25868,0.94245
1475.33014,0.94203
1473.40160,0.94039
1471.47307,0.93760
1469.54453,0.93534
1467.61600,0.93356
1465.68746,0.93177
1463.75892,0.93032
1461.83039,0.92959
1459.90185,0.92891
1457.97331,0.92689
1456.04478,0.92294
1454.11624,0.91941
1452.18771,0.91592
1450.25917,0.91273
1448.33063,0.91154
1446.40210,0.91308
1444.47356,0.91551
1442.54503,0.91733
1440.61649,0.91844
1438.68795,0.91975
1436.75942,0.92264
1434.83088,0.92619
1432.90235,0.92839
1430.97381,0.92922
1429.04527,0.92761
1427.11674,0.92240
1425.18820,0.91302
1423.25966,0.90194
1421.33113,0.89596
1419.40259,0.89904
1417.47406,0.90937
1415.54552,0.91916
1413.61698,0.92709
1411.68845,0.93400
1409.75991,0.93927
1407.83138,0.94250
1405.90284,0.94429
1403.97430,0.94520
1402.04577,0.94533
1400.11723,0.94481
1398.18869,0.94373
1396.26016,0.94232
1394.33162,0.94061
1392.40309,0.93907
1390.47455,0.93758
1388.54601,0.93517
1386.61748,0.93095
1384.68894,0.92517
1382.76041,0.91792
1380.83187,0.90838
1378.90333,0.89617
1376.97480,0.88015
1375.04626,0.85472
1373.11773,0.81745
1371.18919,0.77721
1369.26065,0.73597
1367.33212,0.69897
1365.40358,0.67809
1363.47504,0.67703
1361.54651,0.69466
1359.61797,0.71945
1357.68944,0.74321
1355.76090,0.76562
1353.83236,0.78680
1351.90383,0.80661
1349.97529,0.82533
1348.04676,0.84248
1346.11822,0.85667
1344.18968,0.86724
1342.26115,0.87413
1340.33261,0.87792
1338.40407,0.87911
1336.47554,0.87875
1334.54700,0.87833
1332.61847,0.87871
1330.68993,0.88015
1328.76139,0.88230
1326.83286,0.88462
1324.90432,0.88658
1322.97579,0.88762
1321.04725,0.88740
1319.11871,0.88602
1317.19018,0.88442
1315.26164,0.88395
1313.33311,0.88541
1311.40457,0.88856
1309.47603,0.89233
1307.54750,0.89535
1305.61896,0.89584
1303.69042,0.89178
1301.76189,0.88098
1299.83335,0.86212
1297.90482,0.83655
1295.97628,0.80931
1294.04774,0.78675
1292.11921,0.77197
1290.19067,0.76378
1288.26214,0.75930
1286.33360,0.75587
1284.40506,0.75078
1282.47653,0.74136
1280.54799,0.72593
1278.61945,0.70447
1276.69092,0.67893
1274.76238,0.65336
1272.83385,0.63313
1270.90531,0.62384
1268.97677,0.62909
1267.04824,0.64684
1265.11970,0.66984
1263.19117,0.69019
1261.26263,0.70349
1259.33409,0.70916
1257.40556,0.70936
1255.47702,0.70730
1253.54849,0.70519
1251.61995,0.70349
1249.69141,0.70205
1247.76288,0.70158
1245.83434,0.70345
1243.90580,0.70804
1241.97727,0.71415
1240.04873,0.72009
1238.12020,0.72498
1236.19166,0.72898
1234.26312,0.73262
1232.33459,0.73624
1230.40605,0.73988
1228.47752,0.74357
1226.54898,0.74734
1224.62044,0.75124
1222.69191,0.75524
1220.76337,0.75922
1218.83483,0.76306
1216.90630,0.76662
1214.97776,0.76964
1213.04923,0.77183
1211.12069,0.77300
1209.19215,0.77316
1207.26362,0.77235
1205.33508,0.77039
1203.40655,0.76679
1201.47801,0.76098
1199.54947,0.75244
1197.62094,0.74083
1195.69240,0.72626
1193.76387,0.70928
1191.83533,0.69069
1189.90679,0.67136
1187.97826,0.65198
1186.04972,0.63313
1184.12118,0.61527
1182.19265,0.59859
1180.26411,0.58316
1178.33558,0.56930
1176.40704,0.55745
1174.47850,0.54798
1172.54997,0.54150
1170.62143,0.53874
1168.69290,0.53986
1166.76436,0.54389
1164.83582,0.54908
1162.90729,0.55390
1160.97875,0.55755
1159.05021,0.55948
1157.12168,0.55866
1155.19314,0.55386
1153.26461,0.54477
1151.33607,0.53240
1149.40753,0.51816
1147.47900,0.50327
1145.55046,0.48867
1143.62193,0.47485
1141.69339,0.46189
1139.76485,0.44973
1137.83632,0.43839
1135.90778,0.42796
1133.97924,0.41872
1132.05071,0.41112
1130.12217,0.40566
1128.19364,0.40307
1126.26510,0.40434
1124.33656,0.41032
1122.40803,0.42163
1120.47949,0.43812
1118.55096,0.45821
1116.62242,0.47914
1114.69388,0.49859
1112.76535,0.51603
1110.83681,0.53180
1108.90828,0.54549
1106.97974,0.55662
1105.05120,0.56692
1103.12267,0.57971
1101.19413,0.59663
1099.26559,0.61617
1097.33706,0.63576
1095.40852,0.65430
1093.47999,0.67196
1091.55145,0.68855
1089.62291,0.70335
1087.69438,0.71595
1085.76584,0.72639
1083.83731,0.73518
1081.90877,0.74323
1079.98023,0.75156
1078.05170,0.76100
1076.12316,0.77150
1074.19462,0.78188
1072.26609,0.79078
1070.33755,0.79800
1068.40902,0.80427
1066.48048,0.81012
1064.55194,0.81512
1062.62341,0.81869
1060.69487,0.82098
1058.76634,0.82184
1056.83780,0.81938
1054.90926,0.81061
1052.98073,0.79326
1051.05219,0.76782
1049.12366,0.73772
1047.19512,0.70767
1045.26658,0.68188
1043.33805,0.66295
1041.40951,0.65122
1039.48097,0.64521
1037.55244,0.64257
1035.62390,0.64081
1033.69537,0.63833
1031.76683,0.63584
1029.83829,0.63592
1027.90976,0.64048
1025.98122,0.64910
1024.05269,0.65986
1022.12415,0.67099
1020.19561,0.68171
1018.26708,0.69216
1016.33854,0.70254
1014.41000,0.71252
1012.48147,0.72129
1010.55293,0.72829
1008.62440,0.73421
1006.69586,0.73966
1004.76732,0.74235
1002.83879,0.73875
1000.91025,0.73174
998.98172,0.73169
997.05318,0.74372
995.12464,0.76109
993.19611,0.77643
991.26757,0.78862
989.33904,0.79855
987.41050,0.80634
985.48196,0.81191
983.55343,0.81527
981.62489,0.81688
979.69635,0.81777
977.76782,0.81893
975.83928,0.82043
973.91075,0.82158
971.98221,0.82181
970.05367,0.82136
968.12514,0.82081
966.19660,0.82027
964.26807,0.81937
962.33953,0.81779
960.41099,0.81539
958.48246,0.81201
956.55392,0.80737
954.62538,0.80128
952.69685,0.79408
950.76831,0.78678
948.83978,0.78041
946.91124,0.77527
944.98270,0.77030
943.05417,0.76261
941.12563,0.74945
939.19710,0.73265
937.26856,0.71986
935.34002,0.71894
933.41149,0.73159
931.48295,0.75309
929.55442,0.77672
927.62588,0.79749
925.69734,0.81317
923.76881,0.82372
921.84027,0.83010
919.91173,0.83325
917.98320,0.83416
916.05466,0.83441
914.12613,0.83506
912.19759,0.83526
910.26905,0.83327
908.34052,0.82803
906.41198,0.81938
904.48345,0.80781
902.55491,0.79426
900.62637,0.78000
898.69784,0.76679
896.76930,0.75688
894.84076,0.75267
892.91223,0.75561
890.98369,0.76544
889.05516,0.78041
887.12662,0.79765
885.19808,0.81408
883.26955,0.82796
881.34101,0.83907
879.41248,0.84765
877.48394,0.85396
875.55540,0.85849
873.62687,0.86193
871.69833,0.86448
869.76980,0.86592
867.84126,0.86583
865.91272,0.86183
863.98419,0.84782
862.05565,0.82165
860.12711,0.79744
858.19858,0.79439
856.27004,0.81159
854.34151,0.83255
852.41297,0.84750
850.48443,0.85685
848.55590,0.86292
846.62736,0.86686
844.69883,0.86947
842.77029,0.87168
840.84175,0.87413
838.91322,0.87669
836.98468,0.87885
835.05614,0.88043
833.12761,0.88140
831.19907,0.88195
829.27054,0.88246
827.34200,0.88312
825.41346,0.88386
823.48493,0.88457
821.55639,0.88515
819.62786,0.88554
817.69932,0.88581
815.77078,0.88620
813.84225,0.88687
811.91371,0.88755
809.98517,0.88793
808.05664,0.88781
806.12810,0.88680
804.19957,0.88467
802.27103,0.88204
800.34249,0.88018
798.41396,0.87936
796.48542,0.87828
794.55689,0.87522
792.62835,0.86918
790.69981,0.85997
788.77128,0.84789
786.84274,0.83335
784.91421,0.81682
782.98567,0.79953
781.05713,0.78336
779.12860,0.76990
777.20006,0.76001
775.27152,0.75406
773.34299,0.75214
771.41445,0.75394
769.48592,0.75907
767.55738,0.76714
765.62884,0.77681
763.70031,0.78530
761.77177,0.78956
759.84324,0.78719
757.91470,0.77692
755.98616,0.75937
754.05763,0.73766
752.12909,0.71709
750.20055,0.70389
748.27202,0.70359
746.34348,0.71850
744.41495,0.74491
742.48641,0.77364
740.55787,0.79378
738.62934,0.79664
736.70080,0.78229
734.77227,0.76512
732.84373,0.76193
730.91519,0.77098
728.98666,0.77608
727.05812,0.77301
725.12959,0.77495
723.20105,0.78938
721.27251,0.80836
719.34398,0.82178
717.41544,0.82612
715.48690,0.82355
713.55837,0.81883
711.62983,0.81536
709.70130,0.81317
707.77276,0.81159
705.84422,0.81128
703.91569,0.81311
701.98715,0.81697
700.05862,0.82172
698.13008,0.82623
696.20154,0.83109
694.27301,0.83798
692.34447,0.84600
690.41593,0.85210
688.48740,0.85472
686.55886,0.85125
684.63033,0.83311
682.70179,0.79798
680.77325,0.76800
678.84472,0.76743
676.91618,0.78588
674.98765,0.79759
673.05911,0.79861
671.13057,0.79836
669.20204,0.80338
667.27350,0.81585
665.34497,0.82572
663.41643,0.83172
661.48789,0.83595
659.55936,0.83846
657.63082,0.84041
655.70228,0.84354
653.77375,0.84778
651.84521,0.85068
649.91668,0.84959
647.98814,0.84617
646.05960,0.84684
644.13107,0.85363
642.20253,0.86137
640.27400,0.86586
638.34546,0.86704
636.41692,0.86586
634.48839,0.86281
632.55985,0.85898
630.63131,0.85616
628.70278,0.85553
626.77424,0.85697
624.84571,0.85952
622.91717,0.86212
620.98863,0.86403
619.06010,0.86561
617.13156,0.86763
615.20303,0.86919
613.27449,0.86928
611.34595,0.86852
609.41742,0.86787
607.48888,0.86755
605.56035,0.86729
603.63181,0.86665
601.70327,0.86543
599.77474,0.86390
597.84620,0.86231
595.91766,0.86048
593.98913,0.85802
592.06059,0.85483
590.13206,0.85120
588.20352,0.84741
586.27498,0.84318
584.34645,0.83835
582.41791,0.83316
580.48938,0.82740
578.56084,0.82072
576.63230,0.81320
574.70377,0.80541
572.77523,0.79767
570.84669,0.78954
568.91816,0.78091
566.98962,0.77235
565.06109,0.76449
563.13255,0.75761
561.20401,0.75166
559.27548,0.74616
557.34694,0.74062
555.41841,0.73539
553.48987,0.73161
551.56133,0.72994
549.63280,0.72933
547.70426,0.72786
545.77573,0.72456
543.84719,0.72044
541.91865,0.71733
539.99012,0.71612
538.06158,0.71611
536.13304,0.71519
534.20451,0.71244
532.27597,0.70891
530.34744,0.70565
528.41890,0.70361
526.49036,0.70314
524.56183,0.70305
522.63329,0.70337
520.70476,0.70756
518.77622,0.71857
516.84768,0.73557
514.91915,0.75449
512.99061,0.77123
511.06207,0.78454
509.13354,0.79476
507.20500,0.80158
505.27647,0.80547
503.34793,0.80814
501.41939,0.81069
499.49086,0.81327
497.56232,0.81595
495.63379,0.81881
493.70525,0.82098
491.77671,0.82184
489.84818,0.82235
487.91964,0.82349
485.99110,0.82569
484.06257,0.82909
482.13403,0.83279
480.20550,0.83553
478.27696,0.83484
476.34842,0.82867
474.41989,0.81729
472.49135,0.79846
470.56282,0.77414
468.63428,0.75447
466.70574,0.74682
464.77721,0.75404
462.84867,0.77165
460.92014,0.79118
458.99160,0.80826
457.06306,0.82222
455.13453,0.83040
453.20599,0.83488
451.27745,0.83909
449.34892,0.84271
447.42038,0.84461
445.49185,0.84527
443.56331,0.84630
441.63477,0.84770
439.70624,0.84767
437.77770,0.84633
435.84917,0.84497
433.92063,0.84434
431.99209,0.84441
430.06356,0.84352
428.13502,0.84020
426.20648,0.83507
424.27795,0.83002
422.34941,0.82715
420.42088,0.82759
418.49234,0.83490
416.56380,0.84514
414.63527,0.85137
412.70673,0.85475
410.77820,0.85640
408.84966,0.85695
406.92112,0.85568
404.99259,0.85271
403.06405,0.84960
401.13552,0.84634
399.20698,0.84247
