3997.85540,1.00076
3995.92686,1.00073
3993.99833,1.00070
3992.06979,1.00074
3990.14125,1.00074
3988.21272,1.00070
3986.28418,1.00064
3984.35565,1.00059
3982.42711,1.00062
3980.49857,1.00069
3978.57004,1.00067
3976.64150,1.00060
3974.71297,1.00058
3972.78443,1.00056
3970.85589,1.00048
3968.92736,1.00038
3966.99882,1.00032
3965.07029,1.00031
3963.14175,1.00028
3961.21321,1.00031
3959.28468,1.00040
3957.35614,1.00047
3955.42760,1.00050
3953.49907,1.00044
3951.57053,1.00029
3949.64200,1.00023
3947.71346,1.00034
3945.78492,1.00035
3943.85639,1.00022
3941.92785,1.00024
3939.99932,1.00041
3938.07078,1.00052
3936.14224,1.00048
3934.21371,1.00023
3932.28517,0.99992
3930.35663,0.99989
3928.42810,1.00007
3926.49956,1.00003
3924.57103,0.99985
3922.64249,0.99988
3920.71395,0.99989
3918.78542,0.99969
3916.85688,0.99980
3914.92835,1.00025
3912.99981,1.00049
3911.07127,1.00048
3909.14274,1.00023
3907.21420,0.99958
3905.28566,0.99867
3903.35713,0.99822
3901.42859,0.99842
3899.50006,0.99895
3897.57152,0.99962
3895.64298,0.99985
3893.71445,0.99953
3891.78591,0.99927
3889.85738,0.99950
3887.92884,0.99964
3886.00030,0.99942
3884.07177,0.99902
3882.14323,0.99880
3880.21470,0.99919
3878.28616,0.99969
3876.35762,0.99948
3874.42909,0.99883
3872.50055,0.99830
3870.57201,0.99823
3868.64348,0.99861
3866.71494,0.99860
3864.78641,0.99819
3862.85787,0.99839
3860.92933,0.99905
3859.00080,0.99917
3857.07226,0.99853
3855.14373,0.99747
3853.21519,0.99736
3851.28665,0.99861
3849.35812,0.99932
3847.42958,0.99947
3845.50104,0.99922
3843.57251,0.99873
3841.64397,0.99805
3839.71544,0.99731
3837.78690,0.99729
3835.85836,0.99811
3833.92983,0.99891
3832.00129,0.99939
3830.07276,0.99946
3828.14422,0.99924
3826.21568,0.99904
3824.28715,0.99876
3822.35861,0.99811
3820.43008,0.99774
3818.50154,0.99810
3816.57300,0.99862
3814.64447,0.99945
3812.71593,1.00008
3810.78739,1.00009
3808.85886,0.99952
3806.93032,0.99891
3805.00179,0.99873
3803.07325,0.99848
3801.14471,0.99838
3799.21618,0.99874
3797.28764,0.99919
3795.35911,0.99984
3793.43057,1.00032
3791.50203,1.00046
3789.57350,1.00042
3787.64496,1.00014
3785.71642,0.99975
3783.78789,0.99967
3781.85935,0.99972
3779.93082,0.99966
3778.00228,0.99988
3776.07374,1.00015
3774.14521,1.00005
3772.21667,0.99963
3770.28814,0.99923
3768.35960,0.99919
3766.43106,0.99934
3764.50253,0.99947
3762.57399,0.99926
3760.64546,0.99873
3758.71692,0.99846
3756.78838,0.99853
3754.85985,0.99804
3752.93131,0.99658
3751.00277,0.99506
3749.07424,0.99535
3747.14570,0.99577
3745.21717,0.99559
3743.28863,0.99537
3741.36009,0.99498
3739.43156,0.99414
3737.50302,0.99269
3735.57449,0.99077
3733.64595,0.99004
3731.71741,0.99050
3729.78888,0.99059
3727.86034,0.99014
3725.93180,0.98980
3724.00327,0.99029
3722.07473,0.99150
3720.14620,0.99317
3718.21766,0.99493
3716.28912,0.99607
3714.36059,0.99594
3712.43205,0.99416
3710.50352,0.99218
3708.57498,0.99216
3706.64644,0.99250
3704.71791,0.99238
3702.78937,0.99224
3700.86084,0.99247
3698.93230,0.99265
3697.00376,0.99271
3695.07523,0.99276
3693.14669,0.99250
3691.21815,0.99195
3689.28962,0.99220
3687.36108,0.99335
3685.43255,0.99414
3683.50401,0.99456
3681.57547,0.99453
3679.64694,0.99390
3677.71840,0.99294
3675.78987,0.99264
3673.86133,0.99330
3671.93279,0.99336
3670.00426,0.99343
3668.07572,0.99443
3666.14718,0.99526
3664.21865,0.99554
3662.29011,0.99545
3660.36158,0.99516
3658.43304,0.99474
3656.50450,0.99434
3654.57597,0.99402
3652.64743,0.99330
3650.71890,0.99169
3648.79036,0.99057
3646.86182,0.99178
3644.93329,0.99254
3643.00475,0.99239
3641.07622,0.99187
3639.14768,0.99128
3637.21914,0.99052
3635.29061,0.98948
3633.36207,0.98826
3631.43353,0.98705
3629.50500,0.98596
3627.57646,0.98586
3625.64793,0.98635
3623.71939,0.98663
3621.79085,0.98678
3619.86232,0.98706
3617.93378,0.98760
3616.00525,0.98804
3614.07671,0.98843
3612.14817,0.98881
3610.21964,0.98856
3608.29110,0.98779
3606.36256,0.98745
3604.43403,0.98741
3602.50549,0.98698
3600.57696,0.98639
3598.64842,0.98622
3596.71988,0.98626
3594.79135,0.98626
3592.86281,0.98646
3590.93428,0.98662
3589.00574,0.98658
3587.07720,0.98701
3585.14867,0.98791
3583.22013,0.98853
3581.29160,0.98889
3579.36306,0.98909
3577.43452,0.98915
3575.50599,0.98918
3573.57745,0.98916
3571.64891,0.98885
3569.72038,0.98817
3567.79184,0.98744
3565.86331,0.98748
3563.93477,0.98791
3562.00623,0.98806
3560.07770,0.98814
3558.14916,0.98824
3556.22063,0.98813
3554.29209,0.98770
3552.36355,0.98724
3550.43502,0.98699
3548.50648,0.98659
3546.57794,0.98595
3544.64941,0.98556
3542.72087,0.98554
3540.79234,0.98536
3538.86380,0.98477
3536.93526,0.98397
3535.00673,0.98327
3533.07819,0.98253
3531.14966,0.98141
3529.22112,0.97993
3527.29258,0.97841
3525.36405,0.97688
3523.43551,0.97516
3521.50697,0.97334
3519.57844,0.97144
3517.64990,0.96929
3515.72137,0.96687
3513.79283,0.96425
3511.86429,0.96150
3509.93576,0.95877
3508.00722,0.95620
3506.07869,0.95371
3504.15015,0.95116
3502.22161,0.94889
3500.29308,0.94712
3498.36454,0.94543
3496.43601,0.94374
3494.50747,0.94241
3492.57893,0.94154
3490.65040,0.94090
3488.72186,0.94041
3486.79332,0.94013
3484.86479,0.93998
3482.93625,0.93995
3481.00772,0.94023
3479.07918,0.94085
3477.15064,0.94162
3475.22211,0.94256
3473.29357,0.94365
3471.36504,0.94473
3469.43650,0.94583
3467.50796,0.94715
3465.57943,0.94858
3463.65089,0.94988
3461.72235,0.95115
3459.79382,0.95245
3457.86528,0.95366
3455.93675,0.95477
3454.00821,0.95584
3452.07967,0.95682
3450.15114,0.95761
3448.22260,0.95838
3446.29407,0.95936
3444.36553,0.96033
3442.43699,0.96117
3440.50846,0.96192
3438.57992,0.96260
3436.65139,0.96316
3434.72285,0.96348
3432.79431,0.96360
3430.86578,0.96357
3428.93724,0.96331
3427.00870,0.96264
3425.08017,0.96149
3423.15163,0.95978
3421.22310,0.95763
3419.29456,0.95523
3417.36602,0.95253
3415.43749,0.94934
3413.50895,0.94573
3411.58042,0.94192
3409.65188,0.93805
3407.72334,0.93427
3405.79481,0.93082
3403.86627,0.92786
3401.93773,0.92549
3400.00920,0.92379
3398.08066,0.92275
3396.15213,0.92227
3394.22359,0.92218
3392.29505,0.92242
3390.36652,0.92296
3388.43798,0.92360
3386.50945,0.92434
3384.58091,0.92525
3382.65237,0.92611
3380.72384,0.92686
3378.79530,0.92755
3376.86677,0.92823
3374.93823,0.92891
3373.00969,0.92961
3371.08116,0.93029
3369.15262,0.93100
3367.22408,0.93178
3365.29555,0.93262
3363.36701,0.93350
3361.43848,0.93447
3359.50994,0.93565
3357.58140,0.93701
3355.65287,0.93833
3353.72433,0.93960
3351.79580,0.94096
3349.86726,0.94243
3347.93872,0.94392
3346.01019,0.94538
3344.08165,0.94678
3342.15311,0.94812
3340.22458,0.94937
3338.29604,0.95050
3336.36751,0.95157
3334.43897,0.95278
3332.51043,0.95406
3330.58190,0.95523
3328.65336,0.95629
3326.72483,0.95730
3324.79629,0.95828
3322.86775,0.95926
3320.93922,0.96023
3319.01068,0.96114
3317.08215,0.96198
3315.15361,0.96280
3313.22507,0.96365
3311.29654,0.96453
3309.36800,0.96539
3307.43946,0.96621
3305.51093,0.96696
3303.58239,0.96759
3301.65386,0.96812
3299.72532,0.96864
3297.79678,0.96927
3295.86825,0.96995
3293.93971,0.97050
3292.01118,0.97087
3290.08264,0.97115
3288.15410,0.97146
3286.22557,0.97179
3284.29703,0.97211
3282.36849,0.97244
3280.43996,0.97273
3278.51142,0.97294
3276.58289,0.97316
3274.65435,0.97341
3272.72581,0.97360
3270.79728,0.97365
3268.86874,0.97352
3266.94021,0.97336
3265.01167,0.97331
3263.08313,0.97328
3261.15460,0.97321
3259.22606,0.97315
3257.29753,0.97319
3255.36899,0.97318
3253.44045,0.97299
3251.51192,0.97280
3249.58338,0.97283
3247.65484,0.97299
3245.72631,0.97294
3243.79777,0.97260
3241.86924,0.97221
3239.94070,0.97193
3238.01216,0.97180
3236.08363,0.97190
3234.15509,0.97202
3232.22656,0.97164
3230.29802,0.97083
3228.36948,0.97008
3226.44095,0.96946
3224.51241,0.96879
3222.58387,0.96821
3220.65534,0.96791
3218.72680,0.96766
3216.79827,0.96726
3214.86973,0.96674
3212.94119,0.96605
3211.01266,0.96534
3209.08412,0.96501
3207.15559,0.96499
3205.22705,0.96489
3203.29851,0.96473
3201.36998,0.96461
3199.44144,0.96452
3197.51290,0.96481
3195.58437,0.96569
3193.65583,0.96686
3191.72730,0.96806
3189.79876,0.96923
3187.87022,0.97014
3185.94169,0.97079
3184.01315,0.97153
3182.08462,0.97239
3180.15608,0.97317
3178.22754,0.97393
3176.29901,0.97474
3174.37047,0.97548
3172.44194,0.97606
3170.51340,0.97657
3168.58486,0.97709
3166.65633,0.97764
3164.72779,0.97812
3162.79925,0.97848
3160.87072,0.97876
3158.94218,0.97906
3157.01365,0.97952
3155.08511,0.98020
3153.15657,0.98076
3151.22804,0.98081
3149.29950,0.98044
3147.37097,0.98015
3145.44243,0.98021
3143.51389,0.98063
3141.58536,0.98135
3139.65682,0.98199
3137.72828,0.98212
3135.79975,0.98188
3133.87121,0.98175
3131.94268,0.98192
3130.01414,0.98212
3128.08560,0.98210
3126.15707,0.98198
3124.22853,0.98197
3122.30000,0.98207
3120.37146,0.98209
3118.44292,0.98183
3116.51439,0.98136
3114.58585,0.98089
3112.65732,0.98051
3110.72878,0.98022
3108.80024,0.97997
3106.87171,0.97970
3104.94317,0.97943
3103.01463,0.97921
3101.08610,0.97905
3099.15756,0.97892
3097.22903,0.97870
3095.30049,0.97836
3093.37195,0.97795
3091.44342,0.97742
3089.51488,0.97673
3087.58635,0.97600
3085.65781,0.97535
3083.72927,0.97489
3081.80074,0.97471
3079.87220,0.97483
3077.94366,0.97511
3076.01513,0.97532
3074.08659,0.97546
3072.15806,0.97567
3070.22952,0.97589
3068.30098,0.97592
3066.37245,0.97576
3064.44391,0.97560
3062.51538,0.97551
3060.58684,0.97550
3058.65830,0.97570
3056.72977,0.97612
3054.80123,0.97659
3052.87270,0.97698
3050.94416,0.97732
3049.01562,0.97764
3047.08709,0.97794
3045.15855,0.97826
3043.23001,0.97859
3041.30148,0.97868
3039.37294,0.97838
3037.44441,0.97782
3035.51587,0.97722
3033.58733,0.97677
3031.65880,0.97659
3029.73026,0.97669
3027.80173,0.97703
3025.87319,0.97756
3023.94465,0.97805
3022.01612,0.97831
3020.08758,0.97836
3018.15904,0.97815
3016.23051,0.97762
3014.30197,0.97675
3012.37344,0.97546
3010.44490,0.97375
3008.51636,0.97185
3006.58783,0.97007
3004.65929,0.96850
3002.73076,0.96705
3000.80222,0.96585
2998.87368,0.96503
2996.94515,0.96442
2995.01661,0.96384
2993.08808,0.96326
2991.15954,0.96251
2989.23100,0.96162
2987.30247,0.96097
2985.37393,0.96071
2983.44539,0.96071
2981.51686,0.96069
2979.58832,0.96034
2977.65979,0.95955
2975.73125,0.95853
2973.80271,0.95743
2971.87418,0.95634
2969.94564,0.95534
2968.01711,0.95445
2966.08857,0.95365
2964.16003,0.95299
2962.23150,0.95248
2960.30296,0.95199
2958.37442,0.95151
2956.44589,0.95119
2954.51735,0.95110
2952.58882,0.95104
2950.66028,0.95090
2948.73174,0.95074
2946.80321,0.95062
2944.87467,0.95044
2942.94614,0.95005
2941.01760,0.94940
2939.08906,0.94846
2937.16053,0.94706
2935.23199,0.94513
2933.30346,0.94299
2931.37492,0.94104
2929.44638,0.93951
2927.51785,0.93855
2925.58931,0.93853
2923.66077,0.93972
2921.73224,0.94204
2919.80370,0.94517
2917.87517,0.94886
2915.94663,0.95295
2914.01809,0.95721
2912.08956,0.96126
2910.16102,0.96470
2908.23249,0.96729
2906.30395,0.96889
2904.37541,0.96938
2902.44688,0.96872
2900.51834,0.96717
2898.58980,0.96518
2896.66127,0.96288
2894.73273,0.96020
2892.80420,0.95751
2890.87566,0.95535
2888.94712,0.95381
2887.01859,0.95272
2885.09005,0.95200
2883.16152,0.95163
2881.23298,0.95161
2879.30444,0.95185
2877.37591,0.95214
2875.44737,0.95214
2873.51883,0.95163
2871.59030,0.95071
2869.66176,0.94966
2867.73323,0.94868
2865.80469,0.94767
2863.87615,0.94660
2861.94762,0.94578
2860.01908,0.94555
2858.09055,0.94614
2856.16201,0.94769
2854.23347,0.95013
2852.30494,0.95302
2850.37640,0.95587
2848.44787,0.95848
2846.51933,0.96075
2844.59079,0.96251
2842.66226,0.96381
2840.73372,0.96497
2838.80518,0.96622
2836.87665,0.96758
2834.94811,0.96887
2833.01958,0.96972
2831.09104,0.96975
2829.16250,0.96887
2827.23397,0.96715
2825.30543,0.96461
2823.37690,0.96133
2821.44836,0.95754
2819.51982,0.95342
2817.59129,0.94925
2815.66275,0.94540
2813.73421,0.94230
2811.80568,0.94022
2809.87714,0.93925
2807.94861,0.93935
2806.02007,0.94047
2804.09153,0.94249
2802.16300,0.94533
2800.23446,0.94874
2798.30593,0.95240
2796.37739,0.95611
2794.44885,0.95982
2792.52032,0.96349
2790.59178,0.96691
2788.66325,0.96981
2786.73471,0.97213
2784.80617,0.97418
2782.87764,0.97611
2780.94910,0.97782
2779.02056,0.97936
2777.09203,0.98097
2775.16349,0.98247
2773.23496,0.98337
2771.30642,0.98377
2769.37788,0.98429
2767.44935,0.98518
2765.52081,0.98623
2763.59228,0.98728
2761.66374,0.98834
2759.73520,0.98944
2757.80667,0.99050
2755.87813,0.99140
2753.94959,0.99219
2752.02106,0.99304
2750.09252,0.99390
2748.16399,0.99447
2746.23545,0.99466
2744.30691,0.99474
2742.37838,0.99497
2740.44984,0.99530
2738.52131,0.99563
2736.59277,0.99578
2734.66423,0.99573
2732.73570,0.99569
2730.80716,0.99580
2728.87863,0.99600
2726.95009,0.99612
2725.02155,0.99602
2723.09302,0.99573
2721.16448,0.99536
2719.23594,0.99507
2717.30741,0.99498
2715.37887,0.99502
2713.45034,0.99510
2711.52180,0.99525
2709.59326,0.99537
2707.66473,0.99533
2705.73619,0.99528
2703.80766,0.99542
2701.87912,0.99573
2699.95058,0.99605
2698.02205,0.99625
2696.09351,0.99637
2694.16497,0.99655
2692.23644,0.99682
2690.30790,0.99717
2688.37937,0.99753
2686.45083,0.99784
2684.52229,0.99815
2682.59376,0.99851
2680.66522,0.99884
2678.73669,0.99894
2676.80815,0.99871
2674.87961,0.99826
2672.95108,0.99780
2671.02254,0.99746
2669.09401,0.99725
2667.16547,0.99709
2665.23693,0.99689
2663.30840,0.99665
2661.37986,0.99641
2659.45132,0.99614
2657.52279,0.99583
2655.59425,0.99551
2653.66572,0.99522
2651.73718,0.99496
2649.80864,0.99477
2647.88011,0.99461
2645.95157,0.99443
2644.02304,0.99427
2642.09450,0.99423
2640.16596,0.99432
2638.23743,0.99439
2636.30889,0.99434
2634.38035,0.99431
2632.45182,0.99448
2630.52328,0.99481
2628.59475,0.99519
2626.66621,0.99557
2624.73767,0.99596
2622.80914,0.99631
2620.88060,0.99668
2618.95207,0.99712
2617.02353,0.99743
2615.09499,0.99746
2613.16646,0.99737
2611.23792,0.99737
2609.30939,0.99749
2607.38085,0.99763
2605.45231,0.99771
2603.52378,0.99774
2601.59524,0.99775
2599.66670,0.99772
2597.73817,0.99757
2595.80963,0.99737
2593.88110,0.99725
2591.95256,0.99715
2590.02402,0.99695
2588.09549,0.99663
2586.16695,0.99631
2584.23842,0.99614
2582.30988,0.99619
2580.38134,0.99625
2578.45281,0.99614
2576.52427,0.99605
2574.59573,0.99608
2572.66720,0.99598
2570.73866,0.99576
2568.81013,0.99559
2566.88159,0.99540
2564.95305,0.99511
2563.02452,0.99481
2561.09598,0.99464
2559.16745,0.99461
2557.23891,0.99450
2555.31037,0.99435
2553.38184,0.99427
2551.45330,0.99418
2549.52476,0.99408
2547.59623,0.99400
2545.66769,0.99401
2543.73916,0.99416
2541.81062,0.99432
2539.88208,0.99441
2537.95355,0.99452
2536.02501,0.99474
2534.09648,0.99505
2532.16794,0.99548
2530.23940,0.99590
2528.31087,0.99625
2526.38233,0.99656
2524.45380,0.99679
2522.52526,0.99705
2520.59672,0.99739
2518.66819,0.99773
2516.73965,0.99803
2514.81111,0.99828
2512.88258,0.99835
2510.95404,0.99832
2509.02551,0.99838
2507.09697,0.99846
2505.16843,0.99846
2503.23990,0.99847
2501.31136,0.99858
2499.38283,0.99871
2497.45429,0.99882
2495.52575,0.99886
2493.59722,0.99880
2491.66868,0.99875
2489.74014,0.99882
2487.81161,0.99891
2485.88307,0.99886
2483.95454,0.99874
2482.02600,0.99876
2480.09746,0.99881
2478.16893,0.99865
2476.24039,0.99840
2474.31186,0.99830
2472.38332,0.99836
2470.45478,0.99848
2468.52625,0.99853
2466.59771,0.99846
2464.66918,0.99847
2462.74064,0.99862
2460.81210,0.99877
2458.88357,0.99885
2456.95503,0.99888
2455.02649,0.99893
2453.09796,0.99896
2451.16942,0.99890
2449.24089,0.99883
2447.31235,0.99885
2445.38381,0.99890
2443.45528,0.99897
2441.52674,0.99908
2439.59821,0.99915
2437.66967,0.99916
2435.74113,0.99919
2433.81260,0.99923
2431.88406,0.99928
2429.95552,0.99935
2428.02699,0.99936
2426.09845,0.99931
2424.16992,0.99928
2422.24138,0.99928
2420.31284,0.99922
2418.38431,0.99903
2416.45577,0.99873
2414.52724,0.99841
2412.59870,0.99809
2410.67016,0.99776
2408.74163,0.99749
2406.81309,0.99729
2404.88456,0.99718
2402.95602,0.99707
2401.02748,0.99691
2399.09895,0.99679
2397.17041,0.99675
2395.24187,0.99673
2393.31334,0.99667
2391.38480,0.99649
2389.45627,0.99586
2387.52773,0.99435
2385.59919,0.99146
2383.67066,0.98674
2381.74212,0.98029
2379.81359,0.97267
2377.88505,0.96406
2375.95651,0.95404
2374.02798,0.94218
2372.09944,0.92870
2370.17090,0.91464
2368.24237,0.90101
2366.31383,0.88819
2364.38530,0.87751
2362.45676,0.87069
2360.52822,0.86806
2358.59969,0.87029
2356.67115,0.87889
2354.74262,0.89286
2352.81408,0.90944
2350.88554,0.92384
2348.95701,0.93025
2347.02847,0.92636
2345.09994,0.91458
2343.17140,0.90434
2341.24286,0.90190
2339.31433,0.90384
2337.38579,0.90627
2335.45725,0.90846
2333.52872,0.91064
2331.60018,0.91272
2329.67165,0.91521
2327.74311,0.91863
2325.81457,0.92281
2323.88604,0.92748
2321.95750,0.93297
2320.02897,0.93963
2318.10043,0.94648
2316.17189,0.95193
2314.24336,0.95545
2312.31482,0.95790
2310.38628,0.96061
2308.45775,0.96433
2306.52921,0.96869
2304.60068,0.97254
2302.67214,0.97519
2300.74360,0.97710
2298.81507,0.97900
2296.88653,0.98103
2294.95800,0.98299
2293.02946,0.98476
2291.10092,0.98649
2289.17239,0.98827
2287.24385,0.99000
2285.31532,0.99149
2283.38678,0.99232
2281.45824,0.99232
2279.52971,0.99195
2277.60117,0.99159
2275.67263,0.99133
2273.74410,0.99119
2271.81556,0.99115
2269.88703,0.99124
2267.95849,0.99154
2266.02995,0.99193
2264.10142,0.99224
2262.17288,0.99243
2260.24435,0.99245
2258.31581,0.99239
2256.38727,0.99253
2254.45874,0.99289
2252.53020,0.99313
2250.60166,0.99317
2248.67313,0.99324
2246.74459,0.99334
2244.81606,0.99337
2242.88752,0.99338
2240.95898,0.99362
2239.03045,0.99407
2237.10191,0.99429
2235.17338,0.99422
2233.24484,0.99419
2231.31630,0.99431
2229.38777,0.99451
2227.45923,0.99488
2225.53070,0.99545
2223.60216,0.99596
2221.67362,0.99639
2219.74509,0.99694
2217.81655,0.99735
2215.88801,0.99741
2213.95948,0.99744
2212.03094,0.99760
2210.10241,0.99768
2208.17387,0.99778
2206.24533,0.99806
2204.31680,0.99839
2202.38826,0.99856
2200.45973,0.99858
2198.53119,0.99850
2196.60265,0.99839
2194.67412,0.99836
2192.74558,0.99825
2190.81704,0.99796
2188.88851,0.99771
2186.95997,0.99780
2185.03144,0.99837
2183.10290,0.99916
2181.17436,0.99954
2179.24583,0.99945
2177.31729,0.99927
2175.38876,0.99896
2173.46022,0.99857
2171.53168,0.99845
2169.60315,0.99843
2167.67461,0.99822
2165.74607,0.99791
2163.81754,0.99762
2161.88900,0.99763
2159.96047,0.99811
2158.03193,0.99840
2156.10339,0.99823
2154.17486,0.99812
2152.24632,0.99805
2150.31779,0.99794
2148.38925,0.99809
2146.46071,0.99842
2144.53218,0.99849
2142.60364,0.99817
2140.67511,0.99790
2138.74657,0.99804
2136.81803,0.99841
2134.88950,0.99886
2132.96096,0.99906
2131.03242,0.99878
2129.10389,0.99857
2127.17535,0.99874
2125.24682,0.99883
2123.31828,0.99856
2121.38974,0.99825
2119.46121,0.99819
2117.53267,0.99821
2115.60414,0.99815
2113.67560,0.99811
2111.74706,0.99817
2109.81853,0.99826
2107.88999,0.99840
2105.96145,0.99866
2104.03292,0.99894
2102.10438,0.99905
2100.17585,0.99907
2098.24731,0.99928
2096.31877,0.99964
2094.39024,0.99983
2092.46170,0.99980
2090.53317,0.99978
2088.60463,0.99978
2086.67609,0.99971
2084.74756,0.99963
2082.81902,0.99954
2080.89049,0.99931
2078.96195,0.99903
2077.03341,0.99898
2075.10488,0.99922
2073.17634,0.99964
2071.24780,1.00007
2069.31927,1.00022
2067.39073,0.99999
2065.46220,0.99974
2063.53366,0.99958
2061.60512,0.99939
2059.67659,0.99921
2057.74805,0.99909
2055.81952,0.99896
2053.89098,0.99877
2051.96244,0.99854
2050.03391,0.99854
2048.10537,0.99895
2046.17683,0.99925
2044.24830,0.99896
2042.31976,0.99861
2040.39123,0.99859
2038.46269,0.99853
2036.53415,0.99829
2034.60562,0.99816
2032.67708,0.99823
2030.74855,0.99832
2028.82001,0.99844
2026.89147,0.99841
2024.96294,0.99804
2023.03440,0.99753
2021.10587,0.99724
2019.17733,0.99736
2017.24879,0.99777
2015.32026,0.99794
2013.39172,0.99782
2011.46318,0.99801
2009.53465,0.99843
2007.60611,0.99860
2005.67758,0.99859
2003.74904,0.99866
2001.82050,0.99867
1999.89197,0.99854
1997.96343,0.99835
1996.03490,0.99821
1994.10636,0.99824
1992.17782,0.99838
1990.24929,0.99854
1988.32075,0.99889
1986.39221,0.99932
1984.46368,0.99959
1982.53514,0.99975
1980.60661,1.00008
1978.67807,1.00074
1976.74953,1.00126
1974.82100,1.00101
1972.89246,1.00031
1970.96393,0.99979
1969.03539,0.99948
1967.10685,0.99938
1965.17832,0.99975
1963.24978,1.00040
1961.32125,1.00078
1959.39271,1.00067
1957.46417,1.00036
1955.53564,1.00005
1953.60710,0.99988
1951.67856,0.99992
1949.75003,0.99997
1947.82149,0.99974
1945.89296,0.99924
1943.96442,0.99871
1942.03588,0.99841
1940.10735,0.99834
1938.17881,0.99829
1936.25028,0.99811
1934.32174,0.99786
1932.39320,0.99766
1930.46467,0.99744
1928.53613,0.99717
1926.60759,0.99685
1924.67906,0.99662
1922.75052,0.99664
1920.82199,0.99669
1918.89345,0.99663
1916.96491,0.99679
1915.03638,0.99718
1913.10784,0.99754
1911.17931,0.99770
1909.25077,0.99764
1907.32223,0.99762
1905.39370,0.99768
1903.46516,0.99766
1901.53663,0.99755
1899.60809,0.99742
1897.67955,0.99738
1895.75102,0.99739
1893.82248,0.99739
1891.89394,0.99739
1889.96541,0.99752
1888.03687,0.99773
1886.10834,0.99780
1884.17980,0.99777
1882.25126,0.99781
1880.32273,0.99794
1878.39419,0.99811
1876.46566,0.99820
1874.53712,0.99814
1872.60858,0.99784
1870.68005,0.99722
1868.75151,0.99656
1866.82297,0.99660
1864.89444,0.99696
1862.96590,0.99704
1861.03737,0.99687
1859.10883,0.99666
1857.18029,0.99657
1855.25176,0.99650
1853.32322,0.99634
1851.39469,0.99610
1849.46615,0.99582
1847.53761,0.99542
1845.60908,0.99481
1843.68054,0.99450
1841.75200,0.99480
1839.82347,0.99498
1837.89493,0.99474
1835.96640,0.99442
1834.03786,0.99421
1832.10932,0.99379
1830.18079,0.99324
1828.25225,0.99316
1826.32372,0.99344
1824.39518,0.99379
1822.46664,0.99418
1820.53811,0.99446
1818.60957,0.99462
1816.68104,0.99472
1814.75250,0.99472
1812.82396,0.99461
1810.89543,0.99457
1808.96689,0.99478
1807.03835,0.99500
1805.10982,0.99499
1803.18128,0.99469
1801.25275,0.99412
1799.32421,0.99347
1797.39567,0.99289
1795.46714,0.99239
1793.53860,0.99205
1791.61007,0.99225
1789.68153,0.99297
1787.75299,0.99343
1785.82446,0.99344
1783.89592,0.99314
1781.96738,0.99264
1780.03885,0.99207
1778.11031,0.99151
1776.18178,0.99083
1774.25324,0.98978
1772.32470,0.98851
1770.39617,0.98785
1768.46763,0.98773
1766.53910,0.98759
1764.61056,0.98715
1762.68202,0.98628
1760.75349,0.98527
1758.82495,0.98450
1756.89642,0.98367
1754.96788,0.98288
1753.03934,0.98201
1751.11081,0.98068
1749.18227,0.97917
1747.25373,0.97831
1745.32520,0.97789
1743.39666,0.97743
1741.46813,0.97671
1739.53959,0.97580
1737.61105,0.97497
1735.68252,0.97404
1733.75398,0.97291
1731.82545,0.97277
1729.89691,0.97316
1727.96837,0.97345
1726.03984,0.97356
1724.11130,0.97350
1722.18276,0.97335
1720.25423,0.97300
1718.32569,0.97233
1716.39716,0.97233
1714.46862,0.97377
1712.54008,0.97503
1710.61155,0.97577
1708.68301,0.97609
1706.75448,0.97607
1704.82594,0.97619
1702.89740,0.97649
1700.96887,0.97655
1699.04033,0.97626
1697.11180,0.97629
1695.18326,0.97699
1693.25472,0.97769
1691.32619,0.97808
1689.39765,0.97826
1687.46911,0.97822
1685.54058,0.97779
1683.61204,0.97732
1681.68351,0.97746
1679.75497,0.97758
1677.82643,0.97739
1675.89790,0.97660
1673.96936,0.97533
1672.04083,0.97405
1670.11229,0.97260
1668.18375,0.97159
1666.25522,0.97101
1664.32668,0.96986
1662.39814,0.96794
1660.46961,0.96625
1658.54107,0.96483
1656.61254,0.96311
1654.68400,0.96040
1652.75546,0.95555
1650.82693,0.95265
1648.89839,0.94991
1646.96986,0.94321
1645.04132,0.93539
1643.11278,0.92938
1641.18425,0.92241
1639.25571,0.91431
1637.32718,0.90338
1635.39864,0.88489
1633.47010,0.86861
1631.54157,0.85570
1629.61303,0.83813
1627.68449,0.81444
1625.75596,0.79369
1623.82742,0.78199
1621.89889,0.78009
1619.97035,0.78359
1618.04181,0.78681
1616.11328,0.78476
1614.18474,0.77611
1612.25621,0.76340
1610.32767,0.74480
1608.39913,0.71644
1606.47060,0.67456
1604.54206,0.61589
1602.61352,0.54525
1600.68499,0.49107
1598.75645,0.48284
1596.82792,0.52419
1594.89938,0.59952
1592.97084,0.67756
1591.04231,0.73762
1589.11377,0.77959
1587.18524,0.80684
1585.25670,0.82229
1583.32816,0.82622
1581.39963,0.81706
1579.47109,0.79809
1577.54256,0.77113
1575.61402,0.74466
1573.68548,0.74260
1571.75695,0.75956
1569.82841,0.79688
1567.89987,0.83978
1565.97134,0.86677
1564.04280,0.88630
1562.11427,0.90007
1560.18573,0.91196
1558.25719,0.93465
1556.32866,0.94627
1554.40012,0.94877
1552.47159,0.95024
1550.54305,0.95098
1548.61451,0.95122
1546.68598,0.95070
1544.75744,0.94901
1542.82890,0.94620
1540.90037,0.94294
1538.97183,0.94101
1537.04330,0.94048
1535.11476,0.93979
1533.18622,0.93933
1531.25769,0.93967
1529.32915,0.94019
1527.40062,0.94078
1525.47208,0.94149
1523.54354,0.94169
1521.61501,0.94071
1519.68647,0.93876
1517.75793,0.93440
1515.82940,0.92649
1513.90086,0.91678
1511.97233,0.90437
1510.04379,0.88801
1508.11525,0.85971
1506.18672,0.81925
1504.25818,0.81245
1502.32965,0.81846
1500.40111,0.82257
1498.47257,0.81447
1496.54404,0.78689
1494.61550,0.76052
1492.68697,0.74830
1490.75843,0.75159
1488.82989,0.78036
1486.90136,0.81945
1484.97282,0.84877
1483.04428,0.87016
1481.11575,0.88648
1479.18721,0.89714
1477.25868,0.90337
1475.33014,0.90762
1473.40160,0.91058
1471.47307,0.91232
1469.54453,0.91293
1467.61600,0.91284
1465.68746,0.91177
1463.75892,0.90925
1461.83039,0.90618
1459.90185,0.90292
1457.97331,0.89696
1456.04478,0.88424
1454.11624,0.86594
1452.18771,0.83726
1450.25917,0.79363
1448.33063,0.73599
1446.40210,0.69061
1444.47356,0.68826
1442.54503,0.72301
1440.61649,0.77028
1438.68795,0.80995
1436.75942,0.83734
1434.83088,0.84677
1432.90235,0.84440
1430.97381,0.84347
1429.04527,0.85226
1427.11674,0.86795
1425.18820,0.88642
1423.25966,0.90544
1421.33113,0.91885
1419.40259,0.92550
1417.47406,0.92567
1415.54552,0.92382
1413.61698,0.92506
1411.68845,0.92990
1409.75991,0.93443
1407.83138,0.93430
1405.90284,0.92795
1403.97430,0.91632
1402.04577,0.90311
1400.11723,0.88456
1398.18869,0.85371
1396.26016,0.80564
1394.33162,0.73597
1392.40309,0.66299
1390.47455,0.59786
1388.54601,0.52768
1386.61748,0.45644
1384.68894,0.41805
1382.76041,0.42203
1380.83187,0.46378
1378.90333,0.53330
1376.97480,0.60846
1375.04626,0.67819
1373.11773,0.73331
1371.18919,0.76266
1369.26065,0.77456
1367.33212,0.77651
1365.40358,0.77093
1363.47504,0.75888
1361.54651,0.74320
1359.61797,0.73171
1357.68944,0.72661
1355.76090,0.72842
1353.83236,0.73831
1351.90383,0.75532
1349.97529,0.77821
1348.04676,0.80462
1346.11822,0.83028
1344.18968,0.85147
1342.26115,0.86650
1340.33261,0.87706
1338.40407,0.88539
1336.47554,0.89128
1334.54700,0.89483
1332.61847,0.89680
1330.68993,0.89720
1328.76139,0.89521
1326.83286,0.88915
1324.90432,0.87744
1322.97579,0.86043
1321.04725,0.84061
1319.11871,0.82203
1317.19018,0.81020
1315.26164,0.80838
1313.33311,0.81648
1311.40457,0.83232
1309.47603,0.85231
1307.54750,0.87372
1305.61896,0.89330
1303.69042,0.90789
1301.76189,0.91610
1299.83335,0.91716
1297.90482,0.91072
1295.97628,0.89744
1294.04774,0.87858
1292.11921,0.85433
1290.19067,0.82217
1288.26214,0.77648
1286.33360,0.71247
1284.40506,0.63184
1282.47653,0.54274
1280.54799,0.45747
1278.61945,0.38803
1276.69092,0.33701
1274.76238,0.29564
1272.83385,0.25720
1270.90531,0.23261
1268.97677,0.24671
1267.04824,0.31341
1265.11970,0.41845
1263.19117,0.52969
1261.26263,0.62311
1259.33409,0.69117
1257.40556,0.73665
1255.47702,0.76736
1253.54849,0.78972
1251.61995,0.80727
1249.69141,0.82213
1247.76288,0.83505
1245.83434,0.84562
1243.90580,0.85281
1241.97727,0.85571
1240.04873,0.85471
1238.12020,0.85104
1236.19166,0.84566
1234.26312,0.83949
1232.33459,0.83412
1230.40605,0.83161
1228.47752,0.83336
1226.54898,0.83915
1224.62044,0.84737
1222.69191,0.85592
1220.76337,0.86322
1218.83483,0.86829
1216.90630,0.87051
1214.97776,0.86958
1213.04923,0.86536
1211.12069,0.85750
1209.19215,0.84498
1207.26362,0.82589
1205.33508,0.79779
1203.40655,0.75889
1201.47801,0.70889
1199.54947,0.64932
1197.62094,0.58376
1195.69240,0.51834
1193.76387,0.46185
1191.83533,0.42632
1189.90679,0.42351
1187.97826,0.45351
1186.04972,0.49803
1184.12118,0.53301
1182.19265,0.54830
1180.26411,0.54883
1178.33558,0.54175
1176.40704,0.52878
1174.47850,0.50929
1172.54997,0.48525
1170.62143,0.46026
1168.69290,0.43679
1166.76436,0.41596
1164.83582,0.39833
1162.90729,0.38469
1160.97875,0.37683
1159.05021,0.37771
1157.12168,0.39025
1155.19314,0.41430
1153.26461,0.44422
1151.33607,0.47067
1149.40753,0.48550
1147.47900,0.48540
1145.55046,0.47173
1143.62193,0.44816
1141.69339,0.41850
1139.76485,0.38563
1137.83632,0.35135
1135.90778,0.31696
1133.97924,0.28356
1132.05071,0.25188
1130.12217,0.22232
1128.19364,0.19570
1126.26510,0.17374
1124.33656,0.15938
1122.40803,0.15715
1120.47949,0.17244
1118.55096,0.20829
1116.62242,0.26097
1114.69388,0.31945
1112.76535,0.37226
1110.83681,0.41627
1108.90828,0.45727
1106.97974,0.50179
1105.05120,0.55009
1103.12267,0.59681
1101.19413,0.63640
1099.26559,0.66752
1097.33706,0.69378
1095.40852,0.72005
1093.47999,0.74771
1091.55145,0.77357
1089.62291,0.79319
1087.69438,0.80462
1085.76584,0.80905
1083.83731,0.80949
1081.90877,0.80967
1079.98023,0.81225
1078.05170,0.81667
1076.12316,0.81892
1074.19462,0.81530
1072.26609,0.80690
1070.33755,0.79816
1068.40902,0.79188
1066.48048,0.78860
1064.55194,0.78922
1062.62341,0.79582
1060.69487,0.80965
1058.76634,0.82938
1056.83780,0.85198
1054.90926,0.87461
1052.98073,0.89535
1051.05219,0.91278
1049.12366,0.92577
1047.19512,0.93360
1045.26658,0.93499
1043.33805,0.92719
1041.40951,0.90765
1039.48097,0.87996
1037.55244,0.85685
1035.62390,0.85172
1033.69537,0.86658
1031.76683,0.89281
1029.83829,0.92099
1027.90976,0.94550
1025.98122,0.96354
1024.05269,0.97442
1022.12415,0.97972
1020.19561,0.98276
1018.26708,0.98753
1016.33854,0.99734
1014.41000,1.01139
1012.48147,1.02279
1010.55293,1.02424
1008.62440,1.01567
1006.69586,1.00248
1004.76732,0.98911
1002.83879,0.97675
1000.91025,0.96392
998.98172,0.94615
997.05318,0.91201
995.12464,0.84311
993.19611,0.74176
991.26757,0.66571
989.33904,0.67913
987.41050,0.76225
985.48196,0.84051
983.55343,0.88013
981.62489,0.89603
979.69635,0.90615
977.76782,0.91447
975.83928,0.91862
973.91075,0.91653
971.98221,0.90538
970.05367,0.87967
968.12514,0.83146
966.19660,0.75431
964.26807,0.65347
962.33953,0.55356
960.41099,0.48931
958.48246,0.48153
956.55392,0.51986
954.62538,0.57239
952.69685,0.61605
950.76831,0.65272
948.83978,0.69433
946.91124,0.74311
944.98270,0.79145
943.05417,0.83236
941.12563,0.86367
939.19710,0.88597
937.26856,0.90056
935.34002,0.90962
933.41149,0.91599
931.48295,0.92199
929.55442,0.92906
927.62588,0.93736
925.69734,0.94578
923.76881,0.95278
921.84027,0.95711
919.91173,0.95824
917.98320,0.95754
916.05466,0.95744
914.12613,0.95891
912.19759,0.96146
910.26905,0.96432
908.34052,0.96695
906.41198,0.96907
904.48345,0.97031
902.55491,0.96998
900.62637,0.96740
898.69784,0.96239
896.76930,0.95529
894.84076,0.94647
892.91223,0.93564
890.98369,0.92198
889.05516,0.90490
887.12662,0.88427
885.19808,0.86069
883.26955,0.83544
881.34101,0.80982
879.41248,0.78407
877.48394,0.75809
875.55540,0.73329
873.62687,0.71176
871.69833,0.69493
869.76980,0.68372
867.84126,0.67842
865.91272,0.67760
863.98419,0.67870
862.05565,0.68025
860.12711,0.68317
858.19858,0.69066
856.27004,0.70598
854.34151,0.72917
852.41297,0.75758
850.48443,0.78850
848.55590,0.81967
846.62736,0.84873
844.69883,0.87372
842.77029,0.89350
840.84175,0.90799
838.91322,0.91808
836.98468,0.92496
835.05614,0.92950
833.12761,0.93241
831.19907,0.93459
829.27054,0.93661
827.34200,0.93861
825.41346,0.94037
823.48493,0.94163
821.55639,0.94227
819.62786,0.94237
817.69932,0.94214
815.77078,0.94172
813.84225,0.94149
811.91371,0.94151
809.98517,0.94090
808.05664,0.93794
806.12810,0.93152
804.19957,0.92333
802.27103,0.91711
800.34249,0.91404
798.41396,0.91096
796.48542,0.90383
794.55689,0.88986
792.62835,0.86715
790.69981,0.83497
788.77128,0.79466
786.84274,0.75098
784.91421,0.71244
782.98567,0.69045
781.05713,0.69512
779.12860,0.72823
777.20006,0.77853
775.27152,0.82738
773.34299,0.86227
771.41445,0.88043
769.48592,0.88158
767.55738,0.86384
765.62884,0.83159
763.70031,0.80495
761.77177,0.80654
759.84324,0.83523
757.91470,0.86817
755.98616,0.88917
754.05763,0.89884
752.12909,0.90349
750.20055,0.90697
748.27202,0.91019
746.34348,0.91312
744.41495,0.91573
742.48641,0.91852
740.55787,0.92180
738.62934,0.92542
736.70080,0.92820
734.77227,0.92315
732.84373,0.89017
730.91519,0.82334
728.98666,0.77209
727.05812,0.78311
725.12959,0.82821
723.20105,0.86126
721.27251,0.87646
719.34398,0.88292
717.41544,0.88010
715.48690,0.86040
713.55837,0.81573
711.62983,0.74730
709.70130,0.67691
707.77276,0.63998
705.84422,0.64669
703.91569,0.66892
701.98715,0.69531
700.05862,0.74129
698.13008,0.79589
696.20154,0.83271
694.27301,0.84944
692.34447,0.85640
690.41593,0.85908
688.48740,0.85967
686.55886,0.85893
684.63033,0.85665
682.70179,0.85202
680.77325,0.84132
678.84472,0.81828
676.91618,0.78627
674.98765,0.76521
673.05911,0.76457
671.13057,0.76296
669.20204,0.72493
667.27350,0.67195
665.34497,0.68365
663.41643,0.73347
661.48789,0.78632
659.55936,0.82193
657.63082,0.84092
655.70228,0.85224
653.77375,0.86056
651.84521,0.86581
649.91668,0.86699
647.98814,0.86636
646.05960,0.86723
644.13107,0.87003
642.20253,0.87346
640.27400,0.87676
638.34546,0.87979
636.41692,0.88298
634.48839,0.88598
632.55985,0.88762
630.63131,0.88720
628.70278,0.88535
626.77424,0.88341
624.84571,0.88195
622.91717,0.88092
620.98863,0.87956
619.06010,0.87780
617.13156,0.87682
615.20303,0.87705
613.27449,0.87733
611.34595,0.87691
609.41742,0.87607
607.48888,0.87499
605.56035,0.87449
603.63181,0.87561
601.70327,0.87867
599.77474,0.88316
597.84620,0.88770
595.91766,0.89081
593.98913,0.89225
592.06059,0.89394
590.13206,0.89777
588.20352,0.90325
586.27498,0.90846
584.34645,0.91096
582.41791,0.90981
580.48938,0.90661
578.56084,0.90354
576.63230,0.90077
574.70377,0.89778
572.77523,0.89464
570.84669,0.89137
568.91816,0.88856
566.98962,0.88669
565.06109,0.88549
563.13255,0.88459
561.20401,0.88415
559.27548,0.88410
557.34694,0.88404
555.41841,0.88414
553.48987,0.88418
551.56133,0.88322
549.63280,0.88052
547.70426,0.87591
545.77573,0.87048
543.84719,0.86669
541.91865,0.86565
539.99012,0.86601
538.06158,0.86670
536.13304,0.86747
534.20451,0.86781
532.27597,0.86619
530.34744,0.86070
528.41890,0.85139
526.49036,0.84153
524.56183,0.83748
522.63329,0.84180
520.70476,0.85064
518.77622,0.85984
516.84768,0.86678
514.91915,0.87072
512.99061,0.87277
511.06207,0.87445
509.13354,0.87613
507.20500,0.87763
505.27647,0.87923
503.34793,0.88064
501.41939,0.88037
499.49086,0.87757
497.56232,0.87319
495.63379,0.86859
493.70525,0.86555
491.77671,0.86533
489.84818,0.86742
487.91964,0.87054
485.99110,0.87430
484.06257,0.87865
482.13403,0.88254
480.20550,0.88469
478.27696,0.88451
476.34842,0.88244
474.41989,0.87937
472.49135,0.87516
470.56282,0.86878
468.63428,0.85786
466.70574,0.84013
464.77721,0.81889
462.84867,0.80164
460.92014,0.79482
458.99160,0.80049
457.06306,0.81546
455.13453,0.83094
453.20599,0.84537
451.27745,0.86034
449.34892,0.87252
447.42038,0.88039
445.49185,0.88454
443.56331,0.88634
441.63477,0.88705
439.70624,0.88681
437.77770,0.88564
435.84917,0.88469
433.92063,0.88541
431.99209,0.88730
430.06356,0.88965
428.13502,0.89216
426.20648,0.89435
424.27795,0.89548
422.34941,0.89556
420.42088,0.89505
418.49234,0.89176
416.56380,0.88747
414.63527,0.88540
412.70673,0.88465
410.77820,0.88497
408.84966,0.88574
406.92112,0.88552
404.99259,0.88433
403.06405,0.88290
401.13552,0.87935
399.20698,0.87174
