3997.85540,0.98128
3995.92686,0.98126
3993.99833,0.98126
3992.06979,0.98122
3990.14125,0.98113
3988.21272,0.98100
3986.28418,0.98085
3984.35565,0.98076
3982.42711,0.98071
3980.49857,0.98067
3978.57004,0.98074
3976.64150,0.98089
3974.71297,0.98097
3972.78443,0.98093
3970.85589,0.98089
3968.92736,0.98090
3966.99882,0.98086
3965.07029,0.98083
3963.14175,0.98093
3961.21321,0.98105
3959.28468,0.98109
3957.35614,0.98111
3955.42760,0.98117
3953.49907,0.98121
3951.57053,0.98115
3949.64200,0.98113
3947.71346,0.98122
3945.78492,0.98125
3943.85639,0.98125
3941.92785,0.98143
3939.99932,0.98168
3938.07078,0.98172
3936.14224,0.98153
3934.21371,0.98140
3932.28517,0.98159
3930.35663,0.98184
3928.42810,0.98174
3926.49956,0.98157
3924.57103,0.98166
3922.64249,0.98184
3920.71395,0.98189
3918.78542,0.98193
3916.85688,0.98197
3914.92835,0.98193
3912.99981,0.98185
3911.07127,0.98186
3909.14274,0.98190
3907.21420,0.98181
3905.28566,0.98168
3903.35713,0.98195
3901.42859,0.98246
3899.50006,0.98256
3897.57152,0.98237
3895.64298,0.98221
3893.71445,0.98219
3891.78591,0.98240
3889.85738,0.98261
3887.92884,0.98257
3886.00030,0.98261
3884.07177,0.98286
3882.14323,0.98296
3880.21470,0.98293
3878.28616,0.98292
3876.35762,0.98289
3874.42909,0.98294
3872.50055,0.98302
3870.57201,0.98312
3868.64348,0.98336
3866.71494,0.98333
3864.78641,0.98304
3862.85787,0.98298
3860.92933,0.98316
3859.00080,0.98317
3857.07226,0.98306
3855.14373,0.98306
3853.21519,0.98346
3851.28665,0.98369
3849.35812,0.98351
3847.42958,0.98323
3845.50104,0.98298
3843.57251,0.98282
3841.64397,0.98269
3839.71544,0.98273
3837.78690,0.98324
3835.85836,0.98368
3833.92983,0.98372
3832.00129,0.98367
3830.07276,0.98360
3828.14422,0.98347
3826.21568,0.98337
3824.28715,0.98333
3822.35861,0.98329
3820.43008,0.98319
3818.50154,0.98310
3816.57300,0.98316
3814.64447,0.98332
3812.71593,0.98335
3810.78739,0.98328
3808.85886,0.98318
3806.93032,0.98325
3805.00179,0.98343
3803.07325,0.98356
3801.14471,0.98382
3799.21618,0.98393
3797.28764,0.98387
3795.35911,0.98381
3793.43057,0.98361
3791.50203,0.98339
3789.57350,0.98338
3787.64496,0.98353
3785.71642,0.98376
3783.78789,0.98401
3781.85935,0.98413
3779.93082,0.98414
3778.00228,0.98413
3776.07374,0.98401
3774.14521,0.98384
3772.21667,0.98370
3770.28814,0.98376
3768.35960,0.98402
3766.43106,0.98415
3764.50253,0.98410
3762.57399,0.98390
3760.64546,0.98374
3758.71692,0.98391
3756.78838,0.98416
3754.85985,0.98413
3752.93131,0.98411
3751.00277,0.98452
3749.07424,0.98477
3747.14570,0.98461
3745.21717,0.98467
3743.28863,0.98477
3741.36009,0.98464
3739.43156,0.98451
3737.50302,0.98441
3735.57449,0.98448
3733.64595,0.98473
3731.71741,0.98458
3729.78888,0.98429
3727.86034,0.98416
3725.93180,0.98412
3724.00327,0.98402
3722.07473,0.98406
3720.14620,0.98430
3718.21766,0.98444
3716.28912,0.98439
3714.36059,0.98434
3712.43205,0.98440
3710.50352,0.98444
3708.57498,0.98436
3706.64644,0.98432
3704.71791,0.98435
3702.78937,0.98445
3700.86084,0.98459
3698.93230,0.98455
3697.00376,0.98441
3695.07523,0.98433
3693.14669,0.98433
3691.21815,0.98437
3689.28962,0.98458
3687.36108,0.98484
3685.43255,0.98487
3683.50401,0.98473
3681.57547,0.98455
3679.64694,0.98440
3677.71840,0.98428
3675.78987,0.98433
3673.86133,0.98432
3671.93279,0.98402
3670.00426,0.98395
3668.07572,0.98425
3666.14718,0.98431
3664.21865,0.98423
3662.29011,0.98416
3660.36158,0.98404
3658.43304,0.98379
3656.50450,0.98342
3654.57597,0.98303
3652.64743,0.98269
3650.71890,0.98231
3648.79036,0.98200
3646.86182,0.98216
3644.93329,0.98229
3643.00475,0.98233
3641.07622,0.98249
3639.14768,0.98282
3637.21914,0.98316
3635.29061,0.98339
3633.36207,0.98353
3631.43353,0.98366
3629.50500,0.98401
3627.57646,0.98430
3625.64793,0.98413
3623.71939,0.98390
3621.79085,0.98368
3619.86232,0.98355
3617.93378,0.98383
3616.00525,0.98411
3614.07671,0.98415
3612.14817,0.98421
3610.21964,0.98438
3608.29110,0.98445
3606.36256,0.98436
3604.43403,0.98428
3602.50549,0.98421
3600.57696,0.98423
3598.64842,0.98433
3596.71988,0.98430
3594.79135,0.98417
3592.86281,0.98417
3590.93428,0.98413
3589.00574,0.98401
3587.07720,0.98422
3585.14867,0.98450
3583.22013,0.98439
3581.29160,0.98417
3579.36306,0.98410
3577.43452,0.98421
3575.50599,0.98433
3573.57745,0.98429
3571.64891,0.98410
3569.72038,0.98387
3567.79184,0.98373
3565.86331,0.98375
3563.93477,0.98384
3562.00623,0.98402
3560.07770,0.98420
3558.14916,0.98422
3556.22063,0.98410
3554.29209,0.98392
3552.36355,0.98381
3550.43502,0.98383
3548.50648,0.98384
3546.57794,0.98380
3544.64941,0.98386
3542.72087,0.98396
3540.79234,0.98399
3538.86380,0.98396
3536.93526,0.98391
3535.00673,0.98390
3533.07819,0.98397
3531.14966,0.98409
3529.22112,0.98415
3527.29258,0.98412
3525.36405,0.98406
3523.43551,0.98402
3521.50697,0.98403
3519.57844,0.98400
3517.64990,0.98392
3515.72137,0.98390
3513.79283,0.98398
3511.86429,0.98405
3509.93576,0.98403
3508.00722,0.98398
3506.07869,0.98397
3504.15015,0.98401
3502.22161,0.98404
3500.29308,0.98401
3498.36454,0.98402
3496.43601,0.98409
3494.50747,0.98411
3492.57893,0.98400
3490.65040,0.98392
3488.72186,0.98395
3486.79332,0.98398
3484.86479,0.98395
3482.93625,0.98390
3481.00772,0.98382
3479.07918,0.98369
3477.15064,0.98354
3475.22211,0.98352
3473.29357,0.98361
3471.36504,0.98366
3469.43650,0.98368
3467.50796,0.98370
3465.57943,0.98362
3463.65089,0.98341
3461.72235,0.98323
3459.79382,0.98318
3457.86528,0.98325
3455.93675,0.98331
3454.00821,0.98324
3452.07967,0.98312
3450.15114,0.98309
3448.22260,0.98310
3446.29407,0.98307
3444.36553,0.98298
3442.43699,0.98288
3440.50846,0.98284
3438.57992,0.98281
3436.65139,0.98272
3434.72285,0.98254
3432.79431,0.98237
3430.86578,0.98228
3428.93724,0.98214
3427.00870,0.98178
3425.08017,0.98127
3423.15163,0.98080
3421.22310,0.98044
3419.29456,0.98013
3417.36602,0.97984
3415.43749,0.97964
3413.50895,0.97955
3411.58042,0.97949
3409.65188,0.97942
3407.72334,0.97931
3405.79481,0.97913
3403.86627,0.97891
3401.93773,0.97868
3400.00920,0.97833
3398.08066,0.97788
3396.15213,0.97744
3394.22359,0.97695
3392.29505,0.97633
3390.36652,0.97570
3388.43798,0.97506
3386.50945,0.97425
3384.58091,0.97322
3382.65237,0.97214
3380.72384,0.97111
3378.79530,0.97011
3376.86677,0.96896
3374.93823,0.96754
3373.00969,0.96615
3371.08116,0.96494
3369.15262,0.96355
3367.22408,0.96152
3365.29555,0.95878
3363.36701,0.95592
3361.43848,0.95327
3359.50994,0.95023
3357.58140,0.94656
3355.65287,0.94293
3353.72433,0.93975
3351.79580,0.93654
3349.86726,0.93264
3347.93872,0.92800
3346.01019,0.92318
3344.08165,0.91854
3342.15311,0.91393
3340.22458,0.90940
3338.29604,0.90505
3336.36751,0.90096
3334.43897,0.89767
3332.51043,0.89561
3330.58190,0.89468
3328.65336,0.89451
3326.72483,0.89473
3324.79629,0.89507
3322.86775,0.89556
3320.93922,0.89635
3319.01068,0.89758
3317.08215,0.89929
3315.15361,0.90136
3313.22507,0.90356
3311.29654,0.90580
3309.36800,0.90809
3307.43946,0.91033
3305.51093,0.91244
3303.58239,0.91441
3301.65386,0.91626
3299.72532,0.91793
3297.79678,0.91935
3295.86825,0.92046
3293.93971,0.92139
3292.01118,0.92229
3290.08264,0.92311
3288.15410,0.92383
3286.22557,0.92470
3284.29703,0.92595
3282.36849,0.92751
3280.43996,0.92922
3278.51142,0.93104
3276.58289,0.93302
3274.65435,0.93510
3272.72581,0.93716
3270.79728,0.93917
3268.86874,0.94112
3266.94021,0.94302
3265.01167,0.94488
3263.08313,0.94663
3261.15460,0.94823
3259.22606,0.94979
3257.29753,0.95131
3255.36899,0.95270
3253.44045,0.95397
3251.51192,0.95516
3249.58338,0.95630
3247.65484,0.95734
3245.72631,0.95819
3243.79777,0.95879
3241.86924,0.95915
3239.94070,0.95932
3238.01216,0.95933
3236.08363,0.95923
3234.15509,0.95917
3232.22656,0.95920
3230.29802,0.95929
3228.36948,0.95943
3226.44095,0.95959
3224.51241,0.95981
3222.58387,0.96018
3220.65534,0.96072
3218.72680,0.96136
3216.79827,0.96202
3214.86973,0.96269
3212.94119,0.96335
3211.01266,0.96396
3209.08412,0.96453
3207.15559,0.96509
3205.22705,0.96557
3203.29851,0.96593
3201.36998,0.96625
3199.44144,0.96662
3197.51290,0.96706
3195.58437,0.96749
3193.65583,0.96784
3191.72730,0.96823
3189.79876,0.96870
3187.87022,0.96909
3185.94169,0.96934
3184.01315,0.96952
3182.08462,0.96969
3180.15608,0.96979
3178.22754,0.96986
3176.29901,0.96993
3174.37047,0.96999
3172.44194,0.97016
3170.51340,0.97048
3168.58486,0.97077
3166.65633,0.97092
3164.72779,0.97101
3162.79925,0.97113
3160.87072,0.97141
3158.94218,0.97183
3157.01365,0.97223
3155.08511,0.97252
3153.15657,0.97272
3151.22804,0.97284
3149.29950,0.97282
3147.37097,0.97270
3145.44243,0.97267
3143.51389,0.97280
3141.58536,0.97296
3139.65682,0.97296
3137.72828,0.97273
3135.79975,0.97234
3133.87121,0.97200
3131.94268,0.97177
3130.01414,0.97145
3128.08560,0.97085
3126.15707,0.97016
3124.22853,0.96963
3122.30000,0.96916
3120.37146,0.96837
3118.44292,0.96718
3116.51439,0.96583
3114.58585,0.96456
3112.65732,0.96374
3110.72878,0.96367
3108.80024,0.96411
3106.87171,0.96457
3104.94317,0.96488
3103.01463,0.96495
3101.08610,0.96465
3099.15756,0.96400
3097.22903,0.96339
3095.30049,0.96337
3093.37195,0.96398
3091.44342,0.96457
3089.51488,0.96454
3087.58635,0.96410
3085.65781,0.96387
3083.72927,0.96390
3081.80074,0.96399
3079.87220,0.96418
3077.94366,0.96433
3076.01513,0.96417
3074.08659,0.96381
3072.15806,0.96377
3070.22952,0.96416
3068.30098,0.96450
3066.37245,0.96436
3064.44391,0.96380
3062.51538,0.96322
3060.58684,0.96313
3058.65830,0.96379
3056.72977,0.96482
3054.80123,0.96564
3052.87270,0.96623
3050.94416,0.96673
3049.01562,0.96711
3047.08709,0.96749
3045.15855,0.96790
3043.23001,0.96804
3041.30148,0.96774
3039.37294,0.96708
3037.44441,0.96629
3035.51587,0.96562
3033.58733,0.96508
3031.65880,0.96452
3029.73026,0.96385
3027.80173,0.96325
3025.87319,0.96304
3023.94465,0.96334
3022.01612,0.96406
3020.08758,0.96504
3018.15904,0.96607
3016.23051,0.96691
3014.30197,0.96743
3012.37344,0.96752
3010.44490,0.96726
3008.51636,0.96673
3006.58783,0.96602
3004.65929,0.96526
3002.73076,0.96444
3000.80222,0.96360
2998.87368,0.96278
2996.94515,0.96186
2995.01661,0.96091
2993.08808,0.96008
2991.15954,0.95931
2989.23100,0.95854
2987.30247,0.95786
2985.37393,0.95721
2983.44539,0.95634
2981.51686,0.95490
2979.58832,0.95255
2977.65979,0.94931
2975.73125,0.94524
2973.80271,0.94019
2971.87418,0.93412
2969.94564,0.92735
2968.01711,0.92029
2966.08857,0.91335
2964.16003,0.90705
2962.23150,0.90174
2960.30296,0.89753
2958.37442,0.89445
2956.44589,0.89263
2954.51735,0.89230
2952.58882,0.89357
2950.66028,0.89596
2948.73174,0.89858
2946.80321,0.90038
2944.87467,0.90051
2942.94614,0.89851
2941.01760,0.89424
2939.08906,0.88788
2937.16053,0.87991
2935.23199,0.87090
2933.30346,0.86142
2931.37492,0.85197
2929.44638,0.84309
2927.51785,0.83553
2925.58931,0.83028
2923.66077,0.82835
2921.73224,0.83038
2919.80370,0.83604
2917.87517,0.84405
2915.94663,0.85289
2914.01809,0.86140
2912.08956,0.86895
2910.16102,0.87532
2908.23249,0.88071
2906.30395,0.88561
2904.37541,0.89027
2902.44688,0.89456
2900.51834,0.89861
2898.58980,0.90281
2896.66127,0.90714
2894.73273,0.91113
2892.80420,0.91469
2890.87566,0.91812
2888.94712,0.92145
2887.01859,0.92440
2885.09005,0.92667
2883.16152,0.92803
2881.23298,0.92832
2879.30444,0.92749
2877.37591,0.92576
2875.44737,0.92346
2873.51883,0.92091
2871.59030,0.91856
2869.66176,0.91696
2867.73323,0.91596
2865.80469,0.91468
2863.87615,0.91221
2861.94762,0.90819
2860.01908,0.90263
2858.09055,0.89618
2856.16201,0.89049
2854.23347,0.88761
2852.30494,0.88902
2850.37640,0.89481
2848.44787,0.90352
2846.51933,0.91302
2844.59079,0.92202
2842.66226,0.93033
2840.73372,0.93799
2838.80518,0.94462
2836.87665,0.94987
2834.94811,0.95385
2833.01958,0.95696
2831.09104,0.95942
2829.16250,0.96135
2827.23397,0.96288
2825.30543,0.96416
2823.37690,0.96520
2821.44836,0.96600
2819.51982,0.96669
2817.59129,0.96735
2815.66275,0.96796
2813.73421,0.96850
2811.80568,0.96896
2809.87714,0.96931
2807.94861,0.96960
2806.02007,0.96987
2804.09153,0.97004
2802.16300,0.97022
2800.23446,0.97055
2798.30593,0.97093
2796.37739,0.97118
2794.44885,0.97130
2792.52032,0.97150
2790.59178,0.97178
2788.66325,0.97195
2786.73471,0.97197
2784.80617,0.97200
2782.87764,0.97205
2780.94910,0.97207
2779.02056,0.97214
2777.09203,0.97236
2775.16349,0.97270
2773.23496,0.97296
2771.30642,0.97305
2769.37788,0.97309
2767.44935,0.97323
2765.52081,0.97342
2763.59228,0.97351
2761.66374,0.97351
2759.73520,0.97359
2757.80667,0.97373
2755.87813,0.97373
2753.94959,0.97364
2752.02106,0.97369
2750.09252,0.97388
2748.16399,0.97382
2746.23545,0.97333
2744.30691,0.97266
2742.37838,0.97222
2740.44984,0.97219
2738.52131,0.97239
2736.59277,0.97249
2734.66423,0.97236
2732.73570,0.97226
2730.80716,0.97241
2728.87863,0.97292
2726.95009,0.97359
2725.02155,0.97400
2723.09302,0.97404
2721.16448,0.97394
2719.23594,0.97386
2717.30741,0.97388
2715.37887,0.97404
2713.45034,0.97425
2711.52180,0.97447
2709.59326,0.97463
2707.66473,0.97474
2705.73619,0.97488
2703.80766,0.97504
2701.87912,0.97516
2699.95058,0.97525
2698.02205,0.97532
2696.09351,0.97538
2694.16497,0.97542
2692.23644,0.97538
2690.30790,0.97534
2688.37937,0.97539
2686.45083,0.97549
2684.52229,0.97555
2682.59376,0.97555
2680.66522,0.97552
2678.73669,0.97545
2676.80815,0.97528
2674.87961,0.97508
2672.95108,0.97495
2671.02254,0.97487
2669.09401,0.97479
2667.16547,0.97478
2665.23693,0.97488
2663.30840,0.97509
2661.37986,0.97538
2659.45132,0.97572
2657.52279,0.97606
2655.59425,0.97636
2653.66572,0.97658
2651.73718,0.97672
2649.80864,0.97685
2647.88011,0.97699
2645.95157,0.97719
2644.02304,0.97748
2642.09450,0.97776
2640.16596,0.97793
2638.23743,0.97798
2636.30889,0.97802
2634.38035,0.97814
2632.45182,0.97828
2630.52328,0.97840
2628.59475,0.97854
2626.66621,0.97865
2624.73767,0.97866
2622.80914,0.97863
2620.88060,0.97867
2618.95207,0.97877
2617.02353,0.97880
2615.09499,0.97880
2613.16646,0.97878
2611.23792,0.97867
2609.30939,0.97847
2607.38085,0.97838
2605.45231,0.97838
2603.52378,0.97832
2601.59524,0.97816
2599.66670,0.97791
2597.73817,0.97765
2595.80963,0.97752
2593.88110,0.97750
2591.95256,0.97745
2590.02402,0.97732
2588.09549,0.97726
2586.16695,0.97739
2584.23842,0.97765
2582.30988,0.97789
2580.38134,0.97808
2578.45281,0.97828
2576.52427,0.97845
2574.59573,0.97850
2572.66720,0.97845
2570.73866,0.97839
2568.81013,0.97834
2566.88159,0.97813
2564.95305,0.97778
2563.02452,0.97751
2561.09598,0.97736
2559.16745,0.97716
2557.23891,0.97692
2555.31037,0.97684
2553.38184,0.97702
2551.45330,0.97734
2549.52476,0.97760
2547.59623,0.97784
2545.66769,0.97826
2543.73916,0.97872
2541.81062,0.97899
2539.88208,0.97915
2537.95355,0.97933
2536.02501,0.97946
2534.09648,0.97958
2532.16794,0.97971
2530.23940,0.97976
2528.31087,0.97965
2526.38233,0.97950
2524.45380,0.97942
2522.52526,0.97943
2520.59672,0.97946
2518.66819,0.97942
2516.73965,0.97938
2514.81111,0.97935
2512.88258,0.97934
2510.95404,0.97933
2509.02551,0.97933
2507.09697,0.97944
2505.16843,0.97966
2503.23990,0.97981
2501.31136,0.97977
2499.38283,0.97968
2497.45429,0.97973
2495.52575,0.97990
2493.59722,0.98009
2491.66868,0.98026
2489.74014,0.98034
2487.81161,0.98031
2485.88307,0.98023
2483.95454,0.98027
2482.02600,0.98043
2480.09746,0.98049
2478.16893,0.98037
2476.24039,0.98030
2474.31186,0.98031
2472.38332,0.98034
2470.45478,0.98038
2468.52625,0.98044
2466.59771,0.98060
2464.66918,0.98085
2462.74064,0.98103
2460.81210,0.98111
2458.88357,0.98126
2456.95503,0.98153
2455.02649,0.98173
2453.09796,0.98175
2451.16942,0.98177
2449.24089,0.98193
2447.31235,0.98215
2445.38381,0.98225
2443.45528,0.98218
2441.52674,0.98204
2439.59821,0.98202
2437.66967,0.98218
2435.74113,0.98237
2433.81260,0.98242
2431.88406,0.98233
2429.95552,0.98221
2428.02699,0.98215
2426.09845,0.98216
2424.16992,0.98213
2422.24138,0.98207
2420.31284,0.98207
2418.38431,0.98215
2416.45577,0.98222
2414.52724,0.98231
2412.59870,0.98237
2410.67016,0.98228
2408.74163,0.98208
2406.81309,0.98197
2404.88456,0.98200
2402.95602,0.98203
2401.02748,0.98201
2399.09895,0.98201
2397.17041,0.98203
2395.24187,0.98192
2393.31334,0.98168
2391.38480,0.98143
2389.45627,0.98122
2387.52773,0.98101
2385.59919,0.98080
2383.67066,0.98060
2381.74212,0.98039
2379.81359,0.98006
2377.88505,0.97958
2375.95651,0.97901
2374.02798,0.97857
2372.09944,0.97815
2370.17090,0.97732
2368.24237,0.97610
2366.31383,0.97512
2364.38530,0.97439
2362.45676,0.97336
2360.52822,0.97231
2358.59969,0.97182
2356.67115,0.97215
2354.74262,0.97347
2352.81408,0.97499
2350.88554,0.97599
2348.95701,0.97650
2347.02847,0.97649
2345.09994,0.97596
2343.17140,0.97562
2341.24286,0.97594
2339.31433,0.97631
2337.38579,0.97631
2335.45725,0.97618
2333.52872,0.97626
2331.60018,0.97665
2329.67165,0.97713
2327.74311,0.97742
2325.81457,0.97742
2323.88604,0.97728
2321.95750,0.97742
2320.02897,0.97803
2318.10043,0.97867
2316.17189,0.97893
2314.24336,0.97894
2312.31482,0.97913
2310.38628,0.97956
2308.45775,0.98000
2306.52921,0.98031
2304.60068,0.98047
2302.67214,0.98055
2300.74360,0.98070
2298.81507,0.98078
2296.88653,0.98063
2294.95800,0.98040
2293.02946,0.98040
2291.10092,0.98053
2289.17239,0.98059
2287.24385,0.98064
2285.31532,0.98073
2283.38678,0.98080
2281.45824,0.98072
2279.52971,0.98053
2277.60117,0.98049
2275.67263,0.98067
2273.74410,0.98091
2271.81556,0.98114
2269.88703,0.98133
2267.95849,0.98138
2266.02995,0.98116
2264.10142,0.98071
2262.17288,0.98041
2260.24435,0.98046
2258.31581,0.98071
2256.38727,0.98102
2254.45874,0.98126
2252.53020,0.98145
2250.60166,0.98169
2248.67313,0.98196
2246.74459,0.98222
2244.81606,0.98246
2242.88752,0.98270
2240.95898,0.98302
2239.03045,0.98331
2237.10191,0.98323
2235.17338,0.98292
2233.24484,0.98287
2231.31630,0.98307
2229.38777,0.98309
2227.45923,0.98289
2225.53070,0.98273
2223.60216,0.98273
2221.67362,0.98284
2219.74509,0.98303
2217.81655,0.98335
2215.88801,0.98368
2213.95948,0.98383
2212.03094,0.98385
2210.10241,0.98402
2208.17387,0.98426
2206.24533,0.98444
2204.31680,0.98468
2202.38826,0.98497
2200.45973,0.98514
2198.53119,0.98526
2196.60265,0.98551
2194.67412,0.98580
2192.74558,0.98595
2190.81704,0.98597
2188.88851,0.98602
2186.95997,0.98618
2185.03144,0.98635
2183.10290,0.98645
2181.17436,0.98650
2179.24583,0.98643
2177.31729,0.98635
2175.38876,0.98648
2173.46022,0.98688
2171.53168,0.98731
2169.60315,0.98751
2167.67461,0.98752
2165.74607,0.98755
2163.81754,0.98780
2161.88900,0.98826
2159.96047,0.98868
2158.03193,0.98862
2156.10339,0.98815
2154.17486,0.98790
2152.24632,0.98801
2150.31779,0.98797
2148.38925,0.98755
2146.46071,0.98723
2144.53218,0.98724
2142.60364,0.98725
2140.67511,0.98723
2138.74657,0.98737
2136.81803,0.98765
2134.88950,0.98777
2132.96096,0.98757
2131.03242,0.98703
2129.10389,0.98641
2127.17535,0.98606
2125.24682,0.98590
2123.31828,0.98568
2121.38974,0.98545
2119.46121,0.98538
2117.53267,0.98541
2115.60414,0.98547
2113.67560,0.98565
2111.74706,0.98594
2109.81853,0.98629
2107.88999,0.98660
2105.96145,0.98669
2104.03292,0.98661
2102.10438,0.98663
2100.17585,0.98690
2098.24731,0.98723
2096.31877,0.98744
2094.39024,0.98757
2092.46170,0.98777
2090.53317,0.98796
2088.60463,0.98800
2086.67609,0.98799
2084.74756,0.98805
2082.81902,0.98814
2080.89049,0.98815
2078.96195,0.98811
2077.03341,0.98807
2075.10488,0.98811
2073.17634,0.98833
2071.24780,0.98851
2069.31927,0.98845
2067.39073,0.98829
2065.46220,0.98825
2063.53366,0.98833
2061.60512,0.98838
2059.67659,0.98829
2057.74805,0.98820
2055.81952,0.98831
2053.89098,0.98859
2051.96244,0.98907
2050.03391,0.98982
2048.10537,0.99068
2046.17683,0.99121
2044.24830,0.99142
2042.31976,0.99163
2040.39123,0.99169
2038.46269,0.99172
2036.53415,0.99178
2034.60562,0.99162
2032.67708,0.99123
2030.74855,0.99094
2028.82001,0.99090
2026.89147,0.99084
2024.96294,0.99115
2023.03440,0.99181
2021.10587,0.99212
2019.17733,0.99206
2017.24879,0.99182
2015.32026,0.99145
2013.39172,0.99101
2011.46318,0.99069
2009.53465,0.99056
2007.60611,0.99037
2005.67758,0.99010
2003.74904,0.98972
2001.82050,0.98914
1999.89197,0.98863
1997.96343,0.98838
1996.03490,0.98809
1994.10636,0.98782
1992.17782,0.98797
1990.24929,0.98845
1988.32075,0.98888
1986.39221,0.98876
1984.46368,0.98789
1982.53514,0.98687
1980.60661,0.98653
1978.67807,0.98704
1976.74953,0.98782
1974.82100,0.98833
1972.89246,0.98854
1970.96393,0.98864
1969.03539,0.98870
1967.10685,0.98844
1965.17832,0.98736
1963.24978,0.98558
1961.32125,0.98411
1959.39271,0.98401
1957.46417,0.98518
1955.53564,0.98656
1953.60710,0.98739
1951.67856,0.98763
1949.75003,0.98752
1947.82149,0.98736
1945.89296,0.98752
1943.96442,0.98800
1942.03588,0.98832
1940.10735,0.98826
1938.17881,0.98815
1936.25028,0.98819
1934.32174,0.98821
1932.39320,0.98807
1930.46467,0.98786
1928.53613,0.98757
1926.60759,0.98718
1924.67906,0.98684
1922.75052,0.98663
1920.82199,0.98643
1918.89345,0.98586
1916.96491,0.98477
1915.03638,0.98383
1913.10784,0.98341
1911.17931,0.98346
1909.25077,0.98383
1907.32223,0.98416
1905.39370,0.98418
1903.46516,0.98397
1901.53663,0.98383
1899.60809,0.98375
1897.67955,0.98348
1895.75102,0.98297
1893.82248,0.98260
1891.89394,0.98276
1889.96541,0.98344
1888.03687,0.98436
1886.10834,0.98506
1884.17980,0.98541
1882.25126,0.98548
1880.32273,0.98542
1878.39419,0.98534
1876.46566,0.98520
1874.53712,0.98519
1872.60858,0.98542
1870.68005,0.98582
1868.75151,0.98620
1866.82297,0.98629
1864.89444,0.98612
1862.96590,0.98589
1861.03737,0.98574
1859.10883,0.98565
1857.18029,0.98574
1855.25176,0.98596
1853.32322,0.98608
1851.39469,0.98602
1849.46615,0.98589
1847.53761,0.98580
1845.60908,0.98556
1843.68054,0.98491
1841.75200,0.98413
1839.82347,0.98345
1837.89493,0.98280
1835.96640,0.98230
1834.03786,0.98219
1832.10932,0.98235
1830.18079,0.98264
1828.25225,0.98270
1826.32372,0.98237
1824.39518,0.98180
1822.46664,0.98095
1820.53811,0.97974
1818.60957,0.97823
1816.68104,0.97732
1814.75250,0.97746
1812.82396,0.97809
1810.89543,0.97859
1808.96689,0.97853
1807.03835,0.97798
1805.10982,0.97709
1803.18128,0.97608
1801.25275,0.97519
1799.32421,0.97454
1797.39567,0.97379
1795.46714,0.97273
1793.53860,0.97190
1791.61007,0.97173
1789.68153,0.97184
1787.75299,0.97109
1785.82446,0.96806
1783.89592,0.96286
1781.96738,0.95963
1780.03885,0.96179
1778.11031,0.96641
1776.18178,0.96979
1774.25324,0.97193
1772.32470,0.97344
1770.39617,0.97421
1768.46763,0.97465
1766.53910,0.97531
1764.61056,0.97588
1762.68202,0.97642
1760.75349,0.97691
1758.82495,0.97720
1756.89642,0.97733
1754.96788,0.97713
1753.03934,0.97681
1751.11081,0.97619
1749.18227,0.97517
1747.25373,0.97394
1745.32520,0.97281
1743.39666,0.97174
1741.46813,0.97062
1739.53959,0.96986
1737.61105,0.96941
1735.68252,0.96928
1733.75398,0.96888
1731.82545,0.96779
1729.89691,0.96590
1727.96837,0.96298
1726.03984,0.95961
1724.11130,0.95626
1722.18276,0.95460
1720.25423,0.95511
1718.32569,0.95758
1716.39716,0.96057
1714.46862,0.96035
1712.54008,0.95919
1710.61155,0.95770
1708.68301,0.95614
1706.75448,0.95351
1704.82594,0.94884
1702.89740,0.94417
1700.96887,0.94029
1699.04033,0.93677
1697.11180,0.93011
1695.18326,0.91829
1693.25472,0.90531
1691.32619,0.88672
1689.39765,0.85290
1687.46911,0.81087
1685.54058,0.75454
1683.61204,0.65275
1681.68351,0.60089
1679.75497,0.60574
1677.82643,0.62714
1675.89790,0.66556
1673.96936,0.71318
1672.04083,0.74465
1670.11229,0.76429
1668.18375,0.77706
1666.25522,0.78662
1664.32668,0.80336
1662.39814,0.83420
1660.46961,0.86360
1658.54107,0.88030
1656.61254,0.89099
1654.68400,0.89913
1652.75546,0.90822
1650.82693,0.91323
1648.89839,0.91658
1646.96986,0.92379
1645.04132,0.93031
1643.11278,0.93326
1641.18425,0.93555
1639.25571,0.93772
1637.32718,0.93925
1635.39864,0.93890
1633.47010,0.93576
1631.54157,0.93090
1629.61303,0.92453
1627.68449,0.91905
1625.75596,0.91896
1623.82742,0.92448
1621.89889,0.93136
1619.97035,0.93505
1618.04181,0.93711
1616.11328,0.93881
1614.18474,0.93916
1612.25621,0.93928
1610.32767,0.93998
1608.39913,0.94107
1606.47060,0.94114
1604.54206,0.93896
1602.61352,0.93541
1600.68499,0.93304
1598.75645,0.93180
1596.82792,0.92769
1594.89938,0.91699
1592.97084,0.90009
1591.04231,0.88229
1589.11377,0.87176
1587.18524,0.87394
1585.25670,0.88571
1583.32816,0.90008
1581.39963,0.91194
1579.47109,0.91918
1577.54256,0.92187
1575.61402,0.91974
1573.68548,0.91646
1571.75695,0.91247
1569.82841,0.90116
1567.89987,0.88654
1565.97134,0.88226
1564.04280,0.88600
1562.11427,0.89094
1560.18573,0.89116
1558.25719,0.87640
1556.32866,0.85986
1554.40012,0.84502
1552.47159,0.82748
1550.54305,0.80423
1548.61451,0.77599
1546.68598,0.74892
1544.75744,0.71571
1542.82890,0.66800
1540.90037,0.59554
1538.97183,0.53424
1537.04330,0.52415
1535.11476,0.53522
1533.18622,0.57006
1531.25769,0.60816
1529.32915,0.63448
1527.40062,0.66404
1525.47208,0.69928
1523.54354,0.73008
1521.61501,0.76529
1519.68647,0.79561
1517.75793,0.81730
1515.82940,0.84192
1513.90086,0.86008
1511.97233,0.87199
1510.04379,0.88184
1508.11525,0.88788
1506.18672,0.88207
1504.25818,0.87174
1502.32965,0.85939
1500.40111,0.84020
1498.47257,0.81644
1496.54404,0.80873
1494.61550,0.82261
1492.68697,0.83941
1490.75843,0.86015
1488.82989,0.88810
1486.90136,0.90537
1484.97282,0.91271
1483.04428,0.91768
1481.11575,0.92219
1479.18721,0.92564
1477.25868,0.92729
1475.33014,0.92732
1473.40160,0.92364
1471.47307,0.91610
1469.54453,0.91020
1467.61600,0.90486
1465.68746,0.89615
1463.75892,0.88371
1461.83039,0.87432
1459.90185,0.86689
1457.97331,0.84397
1456.04478,0.78771
1454.11624,0.74442
1452.18771,0.70772
1450.25917,0.67901
1448.33063,0.68039
1446.40210,0.71221
1444.47356,0.73534
1442.54503,0.72750
1440.61649,0.69492
1438.68795,0.66441
1436.75942,0.66636
1434.83088,0.69474
1432.90235,0.71182
1430.97381,0.71677
1429.04527,0.71469
1427.11674,0.71464
1425.18820,0.72755
1423.25966,0.75508
1421.33113,0.78516
1419.40259,0.81779
1417.47406,0.85111
1415.54552,0.86959
1413.61698,0.88148
1411.68845,0.89259
1409.75991,0.90172
1407.83138,0.90715
1405.90284,0.90911
1403.97430,0.90765
1402.04577,0.90436
1400.11723,0.90051
1398.18869,0.89606
1396.26016,0.89257
1394.33162,0.89126
1392.40309,0.89084
1390.47455,0.88858
1388.54601,0.88093
1386.61748,0.86408
1384.68894,0.84182
1382.76041,0.81445
1380.83187,0.77493
1378.90333,0.72309
1376.97480,0.66707
1375.04626,0.60532
1373.11773,0.54252
1371.18919,0.50183
1369.26065,0.48582
1367.33212,0.49284
1365.40358,0.51682
1363.47504,0.55384
1361.54651,0.60195
1359.61797,0.64445
1357.68944,0.67975
1355.76090,0.71302
1353.83236,0.74397
1351.90383,0.77142
1349.97529,0.79634
1348.04676,0.81913
1346.11822,0.83913
1344.18968,0.85620
1342.26115,0.87031
1340.33261,0.88325
1338.40407,0.89546
1336.47554,0.90418
1334.54700,0.91015
1332.61847,0.91478
1330.68993,0.91826
1328.76139,0.92056
1326.83286,0.92140
1324.90432,0.92016
1322.97579,0.91615
1321.04725,0.90920
1319.11871,0.90108
1317.19018,0.89619
1315.26164,0.89602
1313.33311,0.89708
1311.40457,0.89545
1309.47603,0.88932
1307.54750,0.87759
1305.61896,0.85776
1303.69042,0.82484
1301.76189,0.77500
1299.83335,0.71455
1297.90482,0.65965
1295.97628,0.62314
1294.04774,0.60643
1292.11921,0.60505
1290.19067,0.61509
1288.26214,0.63244
1286.33360,0.64982
1284.40506,0.65698
1282.47653,0.64481
1280.54799,0.61309
1278.61945,0.57626
1276.69092,0.55194
1274.76238,0.54605
1272.83385,0.55322
1270.90531,0.56390
1268.97677,0.57234
1267.04824,0.57947
1265.11970,0.58357
1263.19117,0.57664
1261.26263,0.55513
1259.33409,0.52856
1257.40556,0.51229
1255.47702,0.51207
1253.54849,0.52316
1251.61995,0.53836
1249.69141,0.55257
1247.76288,0.56254
1245.83434,0.56648
1243.90580,0.56686
1241.97727,0.57129
1240.04873,0.58746
1238.12020,0.61713
1236.19166,0.65554
1234.26312,0.69583
1232.33459,0.73304
1230.40605,0.76493
1228.47752,0.79128
1226.54898,0.81293
1224.62044,0.83070
1222.69191,0.84489
1220.76337,0.85571
1218.83483,0.86332
1216.90630,0.86767
1214.97776,0.86895
1213.04923,0.86773
1211.12069,0.86500
1209.19215,0.86179
1207.26362,0.85787
1205.33508,0.85172
1203.40655,0.84220
1201.47801,0.82878
1199.54947,0.81054
1197.62094,0.78710
1195.69240,0.75905
1193.76387,0.72667
1191.83533,0.69044
1189.90679,0.65269
1187.97826,0.61686
1186.04972,0.58551
1184.12118,0.55723
1182.19265,0.52686
1180.26411,0.49090
1178.33558,0.45116
1176.40704,0.41388
1174.47850,0.38654
1172.54997,0.37179
1170.62143,0.36745
1168.69290,0.37500
1166.76436,0.39786
1164.83582,0.42959
1162.90729,0.45335
1160.97875,0.45839
1159.05021,0.45362
1157.12168,0.45915
1155.19314,0.48388
1153.26461,0.51372
1151.33607,0.52663
1149.40753,0.51851
1147.47900,0.50437
1145.55046,0.49467
1143.62193,0.48474
1141.69339,0.46773
1139.76485,0.44250
1137.83632,0.41026
1135.90778,0.37394
1133.97924,0.33633
1132.05071,0.29660
1130.12217,0.25619
1128.19364,0.22459
1126.26510,0.21235
1124.33656,0.22230
1122.40803,0.24971
1120.47949,0.28710
1118.55096,0.32784
1116.62242,0.36781
1114.69388,0.40551
1112.76535,0.43977
1110.83681,0.46599
1108.90828,0.47662
1106.97974,0.47411
1105.05120,0.47800
1103.12267,0.50154
1101.19413,0.53480
1099.26559,0.56540
1097.33706,0.59332
1095.40852,0.62039
1093.47999,0.64455
1091.55145,0.66373
1089.62291,0.67733
1087.69438,0.68542
1085.76584,0.68869
1083.83731,0.68910
1081.90877,0.68966
1079.98023,0.69014
1078.05170,0.68689
1076.12316,0.68455
1074.19462,0.69433
1072.26609,0.71515
1070.33755,0.73597
1068.40902,0.75234
1066.48048,0.76574
1064.55194,0.77709
1062.62341,0.78661
1060.69487,0.79447
1058.76634,0.80096
1056.83780,0.80644
1054.90926,0.81100
1052.98073,0.81432
1051.05219,0.81594
1049.12366,0.81528
1047.19512,0.81068
1045.26658,0.79902
1043.33805,0.77918
1041.40951,0.75868
1039.48097,0.75035
1037.55244,0.75808
1035.62390,0.77379
1033.69537,0.78875
1031.76683,0.79861
1029.83829,0.80013
1027.90976,0.78984
1025.98122,0.76382
1024.05269,0.71869
1022.12415,0.65775
1020.19561,0.59730
1018.26708,0.55922
1016.33854,0.55254
1014.41000,0.56490
1012.48147,0.57144
1010.55293,0.56548
1008.62440,0.57317
1006.69586,0.60965
1004.76732,0.65483
1002.83879,0.68995
1000.91025,0.71411
998.98172,0.73126
997.05318,0.74480
995.12464,0.75581
993.19611,0.76294
991.26757,0.76658
989.33904,0.77066
987.41050,0.77602
985.48196,0.77687
983.55343,0.76655
981.62489,0.74569
979.69635,0.72784
977.76782,0.72770
975.83928,0.74023
973.91075,0.74852
971.98221,0.75031
970.05367,0.75545
968.12514,0.76547
966.19660,0.77518
964.26807,0.78332
962.33953,0.79131
960.41099,0.80010
958.48246,0.80999
956.55392,0.82046
954.62538,0.83038
952.69685,0.83866
950.76831,0.84471
948.83978,0.84863
946.91124,0.85072
944.98270,0.85095
943.05417,0.84893
941.12563,0.84385
939.19710,0.83416
937.26856,0.81697
935.34002,0.78824
933.41149,0.74832
931.48295,0.70920
929.55442,0.68786
927.62588,0.68915
925.69734,0.70443
923.76881,0.72643
921.84027,0.75377
919.91173,0.78313
917.98320,0.80816
916.05466,0.82504
914.12613,0.83439
912.19759,0.83926
910.26905,0.84158
908.34052,0.83856
906.41198,0.82461
904.48345,0.80352
902.55491,0.79504
900.62637,0.80900
898.69784,0.82068
896.76930,0.78790
894.84076,0.68520
892.91223,0.55534
890.98369,0.50190
889.05516,0.56121
887.12662,0.66139
885.19808,0.73723
883.26955,0.78370
881.34101,0.81386
879.41248,0.83412
877.48394,0.84778
875.55540,0.85759
873.62687,0.86524
871.69833,0.87167
869.76980,0.87706
867.84126,0.88136
865.91272,0.88465
863.98419,0.88677
862.05565,0.88632
860.12711,0.87814
858.19858,0.84873
856.27004,0.79377
854.34151,0.74985
852.41297,0.75458
850.48443,0.78715
848.55590,0.81393
846.62736,0.83626
844.69883,0.85943
842.77029,0.87747
840.84175,0.88817
838.91322,0.89410
836.98468,0.89729
835.05614,0.89856
833.12761,0.89870
831.19907,0.89845
829.27054,0.89840
827.34200,0.89883
825.41346,0.89958
823.48493,0.90046
821.55639,0.90152
819.62786,0.90292
817.69932,0.90463
815.77078,0.90686
813.84225,0.90967
811.91371,0.91268
809.98517,0.91568
808.05664,0.91844
806.12810,0.92061
804.19957,0.92198
802.27103,0.92297
800.34249,0.92389
798.41396,0.92457
796.48542,0.92466
794.55689,0.92387
792.62835,0.92185
790.69981,0.91633
788.77128,0.89710
786.84274,0.84814
784.91421,0.78451
782.98567,0.76163
781.05713,0.79781
779.12860,0.84841
777.20006,0.87959
775.27152,0.89432
773.34299,0.90095
771.41445,0.90299
769.48592,0.90198
767.55738,0.89740
765.62884,0.88480
763.70031,0.85175
761.77177,0.78474
759.84324,0.70228
757.91470,0.66202
755.98616,0.69410
754.05763,0.76318
752.12909,0.82107
750.20055,0.85267
748.27202,0.86402
746.34348,0.86018
744.41495,0.84948
742.48641,0.84923
740.55787,0.86563
738.62934,0.88474
736.70080,0.89166
734.77227,0.86997
732.84373,0.80634
730.91519,0.74347
728.98666,0.74885
727.05812,0.80667
725.12959,0.85369
723.20105,0.87388
721.27251,0.88175
719.34398,0.88509
717.41544,0.88503
715.48690,0.87973
713.55837,0.86498
711.62983,0.83234
709.70130,0.76704
707.77276,0.65983
705.84422,0.54323
703.91569,0.49091
701.98715,0.53514
700.05862,0.62782
698.13008,0.70805
696.20154,0.75145
694.27301,0.75923
692.34447,0.74898
690.41593,0.74862
688.48740,0.76845
686.55886,0.79346
684.63033,0.81072
682.70179,0.82013
680.77325,0.82378
678.84472,0.82096
676.91618,0.80322
674.98765,0.76538
673.05911,0.73026
671.13057,0.72144
669.20204,0.72373
667.27350,0.68557
665.34497,0.62760
663.41643,0.60156
661.48789,0.62271
659.55936,0.66523
657.63082,0.69126
655.70228,0.70017
653.77375,0.70274
651.84521,0.70202
649.91668,0.69371
647.98814,0.67450
646.05960,0.65330
644.13107,0.64260
642.20253,0.64319
640.27400,0.64890
638.34546,0.65774
636.41692,0.67111
634.48839,0.69047
632.55985,0.71459
630.63131,0.73648
628.70278,0.74284
626.77424,0.72754
624.84571,0.70602
622.91717,0.69906
620.98863,0.70685
619.06010,0.71557
617.13156,0.72103
615.20303,0.73358
613.27449,0.75673
611.34595,0.78209
609.41742,0.80361
607.48888,0.82091
605.56035,0.83476
603.63181,0.84484
601.70327,0.84899
599.77474,0.84346
597.84620,0.82445
595.91766,0.79029
593.98913,0.74285
592.06059,0.69072
590.13206,0.65238
588.20352,0.63901
586.27498,0.64570
584.34645,0.66368
582.41791,0.68502
580.48938,0.70478
578.56084,0.72106
576.63230,0.73608
574.70377,0.75237
572.77523,0.76854
570.84669,0.78329
568.91816,0.79633
566.98962,0.80719
565.06109,0.81615
563.13255,0.82412
561.20401,0.83136
559.27548,0.83785
557.34694,0.84379
555.41841,0.84914
553.48987,0.85312
551.56133,0.85473
549.63280,0.85300
547.70426,0.84561
545.77573,0.82901
543.84719,0.79823
541.91865,0.74259
539.99012,0.65939
538.06158,0.58404
536.13304,0.56743
534.20451,0.61040
532.27597,0.66806
530.34744,0.71201
528.41890,0.74106
526.49036,0.75865
524.56183,0.76738
522.63329,0.77504
520.70476,0.78862
518.77622,0.80855
516.84768,0.82835
514.91915,0.84169
512.99061,0.85050
511.06207,0.85783
509.13354,0.86357
507.20500,0.86693
505.27647,0.86886
503.34793,0.87168
501.41939,0.87590
499.49086,0.87952
497.56232,0.88133
495.63379,0.88190
493.70525,0.88234
491.77671,0.88329
489.84818,0.88434
487.91964,0.88442
485.99110,0.88240
484.06257,0.87710
482.13403,0.86954
480.20550,0.86360
478.27696,0.86153
476.34842,0.85990
474.41989,0.85360
472.49135,0.84374
470.56282,0.83340
468.63428,0.80841
466.70574,0.75074
464.77721,0.68139
462.84867,0.65093
460.92014,0.67794
458.99160,0.73047
457.06306,0.76574
455.13453,0.76963
453.20599,0.76296
451.27745,0.76709
449.34892,0.78899
447.42038,0.81979
445.49185,0.84699
443.56331,0.86579
441.63477,0.87892
439.70624,0.88663
437.77770,0.89055
435.84917,0.89230
433.92063,0.89156
431.99209,0.88791
430.06356,0.88140
428.13502,0.86987
426.20648,0.84462
424.27795,0.79643
422.34941,0.74209
420.42088,0.71879
418.49234,0.76427
416.56380,0.81996
414.63527,0.84516
412.70673,0.86181
410.77820,0.87322
408.84966,0.87952
406.92112,0.88251
404.99259,0.88536
403.06405,0.88950
401.13552,0.89334
399.20698,0.89999
