3997.85540,0.98267
3995.92686,0.98258
3993.99833,0.98260
3992.06979,0.98275
3990.14125,0.98279
3988.21272,0.98266
3986.28418,0.98254
3984.35565,0.98253
3982.42711,0.98260
3980.49857,0.98270
3978.57004,0.98272
3976.64150,0.98269
3974.71297,0.98265
3972.78443,0.98265
3970.85589,0.98264
3968.92736,0.98261
3966.99882,0.98259
3965.07029,0.98260
3963.14175,0.98259
3961.21321,0.98254
3959.28468,0.98252
3957.35614,0.98255
3955.42760,0.98261
3953.49907,0.98267
3951.57053,0.98273
3949.64200,0.98283
3947.71346,0.98293
3945.78492,0.98295
3943.85639,0.98297
3941.92785,0.98306
3939.99932,0.98315
3938.07078,0.98316
3936.14224,0.98313
3934.21371,0.98310
3932.28517,0.98311
3930.35663,0.98322
3928.42810,0.98341
3926.49956,0.98354
3924.57103,0.98343
3922.64249,0.98322
3920.71395,0.98314
3918.78542,0.98320
3916.85688,0.98332
3914.92835,0.98337
3912.99981,0.98335
3911.07127,0.98335
3909.14274,0.98329
3907.21420,0.98304
3905.28566,0.98277
3903.35713,0.98271
3901.42859,0.98272
3899.50006,0.98277
3897.57152,0.98299
3895.64298,0.98318
3893.71445,0.98317
3891.78591,0.98300
3889.85738,0.98289
3887.92884,0.98289
3886.00030,0.98291
3884.07177,0.98285
3882.14323,0.98277
3880.21470,0.98293
3878.28616,0.98317
3876.35762,0.98314
3874.42909,0.98300
3872.50055,0.98296
3870.57201,0.98300
3868.64348,0.98314
3866.71494,0.98324
3864.78641,0.98317
3862.85787,0.98306
3860.92933,0.98304
3859.00080,0.98298
3857.07226,0.98285
3855.14373,0.98275
3853.21519,0.98305
3851.28665,0.98336
3849.35812,0.98332
3847.42958,0.98324
3845.50104,0.98326
3843.57251,0.98339
3841.64397,0.98343
3839.71544,0.98320
3837.78690,0.98300
3835.85836,0.98313
3833.92983,0.98335
3832.00129,0.98342
3830.07276,0.98335
3828.14422,0.98331
3826.21568,0.98339
3824.28715,0.98343
3822.35861,0.98330
3820.43008,0.98326
3818.50154,0.98340
3816.57300,0.98341
3814.64447,0.98345
3812.71593,0.98355
3810.78739,0.98359
3808.85886,0.98356
3806.93032,0.98354
3805.00179,0.98356
3803.07325,0.98363
3801.14471,0.98382
3799.21618,0.98395
3797.28764,0.98391
3795.35911,0.98385
3793.43057,0.98384
3791.50203,0.98386
3789.57350,0.98386
3787.64496,0.98379
3785.71642,0.98368
3783.78789,0.98368
3781.85935,0.98379
3779.93082,0.98393
3778.00228,0.98398
3776.07374,0.98392
3774.14521,0.98387
3772.21667,0.98393
3770.28814,0.98403
3768.35960,0.98400
3766.43106,0.98395
3764.50253,0.98397
3762.57399,0.98396
3760.64546,0.98391
3758.71692,0.98402
3756.78838,0.98425
3754.85985,0.98424
3752.93131,0.98387
3751.00277,0.98366
3749.07424,0.98406
3747.14570,0.98420
3745.21717,0.98408
3743.28863,0.98407
3741.36009,0.98414
3739.43156,0.98412
3737.50302,0.98396
3735.57449,0.98377
3733.64595,0.98390
3731.71741,0.98424
3729.78888,0.98448
3727.86034,0.98456
3725.93180,0.98444
3724.00327,0.98415
3722.07473,0.98400
3720.14620,0.98411
3718.21766,0.98428
3716.28912,0.98442
3714.36059,0.98452
3712.43205,0.98454
3710.50352,0.98456
3708.57498,0.98471
3706.64644,0.98481
3704.71791,0.98475
3702.78937,0.98462
3700.86084,0.98453
3698.93230,0.98442
3697.00376,0.98431
3695.07523,0.98435
3693.14669,0.98451
3691.21815,0.98462
3689.28962,0.98458
3687.36108,0.98444
3685.43255,0.98434
3683.50401,0.98428
3681.57547,0.98418
3679.64694,0.98390
3677.71840,0.98349
3675.78987,0.98322
3673.86133,0.98326
3671.93279,0.98322
3670.00426,0.98321
3668.07572,0.98340
3666.14718,0.98352
3664.21865,0.98356
3662.29011,0.98358
3660.36158,0.98359
3658.43304,0.98361
3656.50450,0.98361
3654.57597,0.98354
3652.64743,0.98342
3650.71890,0.98327
3648.79036,0.98316
3646.86182,0.98320
3644.93329,0.98323
3643.00475,0.98311
3641.07622,0.98294
3639.14768,0.98289
3637.21914,0.98285
3635.29061,0.98273
3633.36207,0.98263
3631.43353,0.98264
3629.50500,0.98263
3627.57646,0.98258
3625.64793,0.98263
3623.71939,0.98268
3621.79085,0.98265
3619.86232,0.98257
3617.93378,0.98247
3616.00525,0.98231
3614.07671,0.98223
3612.14817,0.98234
3610.21964,0.98247
3608.29110,0.98251
3606.36256,0.98251
3604.43403,0.98246
3602.50549,0.98233
3600.57696,0.98224
3598.64842,0.98215
3596.71988,0.98197
3594.79135,0.98186
3592.86281,0.98190
3590.93428,0.98185
3589.00574,0.98158
3587.07720,0.98136
3585.14867,0.98140
3583.22013,0.98142
3581.29160,0.98136
3579.36306,0.98123
3577.43452,0.98113
3575.50599,0.98102
3573.57745,0.98075
3571.64891,0.98046
3569.72038,0.98035
3567.79184,0.98029
3565.86331,0.98011
3563.93477,0.98000
3562.00623,0.97997
3560.07770,0.97982
3558.14916,0.97960
3556.22063,0.97945
3554.29209,0.97935
3552.36355,0.97930
3550.43502,0.97930
3548.50648,0.97914
3546.57794,0.97871
3544.64941,0.97840
3542.72087,0.97840
3540.79234,0.97841
3538.86380,0.97830
3536.93526,0.97819
3535.00673,0.97818
3533.07819,0.97821
3531.14966,0.97811
3529.22112,0.97792
3527.29258,0.97780
3525.36405,0.97768
3523.43551,0.97746
3521.50697,0.97732
3519.57844,0.97728
3517.64990,0.97722
3515.72137,0.97718
3513.79283,0.97719
3511.86429,0.97723
3509.93576,0.97722
3508.00722,0.97710
3506.07869,0.97688
3504.15015,0.97668
3502.22161,0.97662
3500.29308,0.97667
3498.36454,0.97666
3496.43601,0.97657
3494.50747,0.97652
3492.57893,0.97656
3490.65040,0.97658
3488.72186,0.97655
3486.79332,0.97654
3484.86479,0.97656
3482.93625,0.97646
3481.00772,0.97624
3479.07918,0.97605
3477.15064,0.97594
3475.22211,0.97596
3473.29357,0.97602
3471.36504,0.97597
3469.43650,0.97591
3467.50796,0.97590
3465.57943,0.97585
3463.65089,0.97573
3461.72235,0.97558
3459.79382,0.97545
3457.86528,0.97539
3455.93675,0.97538
3454.00821,0.97536
3452.07967,0.97531
3450.15114,0.97519
3448.22260,0.97506
3446.29407,0.97506
3444.36553,0.97515
3442.43699,0.97511
3440.50846,0.97495
3438.57992,0.97486
3436.65139,0.97489
3434.72285,0.97488
3432.79431,0.97481
3430.86578,0.97472
3428.93724,0.97458
3427.00870,0.97445
3425.08017,0.97432
3423.15163,0.97414
3421.22310,0.97403
3419.29456,0.97409
3417.36602,0.97416
3415.43749,0.97415
3413.50895,0.97411
3411.58042,0.97403
3409.65188,0.97395
3407.72334,0.97385
3405.79481,0.97363
3403.86627,0.97341
3401.93773,0.97331
3400.00920,0.97327
3398.08066,0.97315
3396.15213,0.97303
3394.22359,0.97297
3392.29505,0.97287
3390.36652,0.97270
3388.43798,0.97249
3386.50945,0.97227
3384.58091,0.97203
3382.65237,0.97175
3380.72384,0.97137
3378.79530,0.97083
3376.86677,0.97021
3374.93823,0.96957
3373.00969,0.96882
3371.08116,0.96783
3369.15262,0.96655
3367.22408,0.96500
3365.29555,0.96326
3363.36701,0.96139
3361.43848,0.95936
3359.50994,0.95724
3357.58140,0.95512
3355.65287,0.95285
3353.72433,0.95041
3351.79580,0.94799
3349.86726,0.94577
3347.93872,0.94372
3346.01019,0.94175
3344.08165,0.93983
3342.15311,0.93803
3340.22458,0.93639
3338.29604,0.93487
3336.36751,0.93359
3334.43897,0.93272
3332.51043,0.93221
3330.58190,0.93188
3328.65336,0.93176
3326.72483,0.93189
3324.79629,0.93231
3322.86775,0.93303
3320.93922,0.93395
3319.01068,0.93503
3317.08215,0.93635
3315.15361,0.93789
3313.22507,0.93958
3311.29654,0.94131
3309.36800,0.94292
3307.43946,0.94437
3305.51093,0.94570
3303.58239,0.94687
3301.65386,0.94784
3299.72532,0.94862
3297.79678,0.94926
3295.86825,0.94982
3293.93971,0.95026
3292.01118,0.95052
3290.08264,0.95067
3288.15410,0.95083
3286.22557,0.95101
3284.29703,0.95123
3282.36849,0.95148
3280.43996,0.95167
3278.51142,0.95184
3276.58289,0.95203
3274.65435,0.95225
3272.72581,0.95258
3270.79728,0.95304
3268.86874,0.95352
3266.94021,0.95406
3265.01167,0.95466
3263.08313,0.95530
3261.15460,0.95600
3259.22606,0.95668
3257.29753,0.95726
3255.36899,0.95786
3253.44045,0.95860
3251.51192,0.95940
3249.58338,0.96013
3247.65484,0.96084
3245.72631,0.96156
3243.79777,0.96224
3241.86924,0.96293
3239.94070,0.96364
3238.01216,0.96427
3236.08363,0.96489
3234.15509,0.96556
3232.22656,0.96617
3230.29802,0.96669
3228.36948,0.96719
3226.44095,0.96764
3224.51241,0.96795
3222.58387,0.96825
3220.65534,0.96866
3218.72680,0.96907
3216.79827,0.96930
3214.86973,0.96938
3212.94119,0.96936
3211.01266,0.96933
3209.08412,0.96948
3207.15559,0.96978
3205.22705,0.96997
3203.29851,0.97005
3201.36998,0.97014
3199.44144,0.97027
3197.51290,0.97056
3195.58437,0.97107
3193.65583,0.97166
3191.72730,0.97227
3189.79876,0.97280
3187.87022,0.97309
3185.94169,0.97317
3184.01315,0.97324
3182.08462,0.97339
3180.15608,0.97361
3178.22754,0.97386
3176.29901,0.97409
3174.37047,0.97429
3172.44194,0.97445
3170.51340,0.97457
3168.58486,0.97468
3166.65633,0.97480
3164.72779,0.97492
3162.79925,0.97499
3160.87072,0.97504
3158.94218,0.97517
3157.01365,0.97542
3155.08511,0.97572
3153.15657,0.97594
3151.22804,0.97597
3149.29950,0.97582
3147.37097,0.97568
3145.44243,0.97570
3143.51389,0.97588
3141.58536,0.97610
3139.65682,0.97625
3137.72828,0.97624
3135.79975,0.97611
3133.87121,0.97598
3131.94268,0.97593
3130.01414,0.97589
3128.08560,0.97574
3126.15707,0.97547
3124.22853,0.97511
3122.30000,0.97470
3120.37146,0.97429
3118.44292,0.97372
3116.51439,0.97287
3114.58585,0.97188
3112.65732,0.97100
3110.72878,0.97037
3108.80024,0.97000
3106.87171,0.96981
3104.94317,0.96987
3103.01463,0.97024
3101.08610,0.97072
3099.15756,0.97109
3097.22903,0.97131
3095.30049,0.97139
3093.37195,0.97133
3091.44342,0.97107
3089.51488,0.97069
3087.58635,0.97028
3085.65781,0.96996
3083.72927,0.96982
3081.80074,0.96991
3079.87220,0.97016
3077.94366,0.97046
3076.01513,0.97075
3074.08659,0.97110
3072.15806,0.97150
3070.22952,0.97182
3068.30098,0.97194
3066.37245,0.97190
3064.44391,0.97179
3062.51538,0.97167
3060.58684,0.97157
3058.65830,0.97146
3056.72977,0.97137
3054.80123,0.97135
3052.87270,0.97135
3050.94416,0.97133
3049.01562,0.97132
3047.08709,0.97132
3045.15855,0.97127
3043.23001,0.97117
3041.30148,0.97095
3039.37294,0.97052
3037.44441,0.96997
3035.51587,0.96949
3033.58733,0.96915
3031.65880,0.96885
3029.73026,0.96851
3027.80173,0.96816
3025.87319,0.96786
3023.94465,0.96755
3022.01612,0.96723
3020.08758,0.96701
3018.15904,0.96685
3016.23051,0.96665
3014.30197,0.96637
3012.37344,0.96589
3010.44490,0.96509
3008.51636,0.96409
3006.58783,0.96322
3004.65929,0.96261
3002.73076,0.96209
3000.80222,0.96167
2998.87368,0.96146
2996.94515,0.96126
2995.01661,0.96091
2993.08808,0.96045
2991.15954,0.95972
2989.23100,0.95871
2987.30247,0.95776
2985.37393,0.95699
2983.44539,0.95625
2981.51686,0.95528
2979.58832,0.95378
2977.65979,0.95168
2975.73125,0.94916
2973.80271,0.94630
2971.87418,0.94315
2969.94564,0.93981
2968.01711,0.93640
2966.08857,0.93304
2964.16003,0.92990
2962.23150,0.92702
2960.30296,0.92445
2958.37442,0.92232
2956.44589,0.92070
2954.51735,0.91954
2952.58882,0.91868
2950.66028,0.91794
2948.73174,0.91704
2946.80321,0.91559
2944.87467,0.91338
2942.94614,0.91038
2941.01760,0.90671
2939.08906,0.90265
2937.16053,0.89860
2935.23199,0.89491
2933.30346,0.89191
2931.37492,0.88973
2929.44638,0.88824
2927.51785,0.88733
2925.58931,0.88689
2923.66077,0.88675
2921.73224,0.88664
2919.80370,0.88640
2917.87517,0.88589
2915.94663,0.88506
2914.01809,0.88386
2912.08956,0.88233
2910.16102,0.88072
2908.23249,0.87942
2906.30395,0.87874
2904.37541,0.87883
2902.44688,0.87964
2900.51834,0.88115
2898.58980,0.88335
2896.66127,0.88593
2894.73273,0.88853
2892.80420,0.89106
2890.87566,0.89361
2888.94712,0.89622
2887.01859,0.89889
2885.09005,0.90155
2883.16152,0.90405
2881.23298,0.90624
2879.30444,0.90807
2877.37591,0.90948
2875.44737,0.91048
2873.51883,0.91129
2871.59030,0.91206
2869.66176,0.91287
2867.73323,0.91360
2865.80469,0.91386
2863.87615,0.91335
2861.94762,0.91205
2860.01908,0.91001
2858.09055,0.90733
2856.16201,0.90449
2854.23347,0.90221
2852.30494,0.90112
2850.37640,0.90163
2848.44787,0.90392
2846.51933,0.90786
2844.59079,0.91309
2842.66226,0.91906
2840.73372,0.92498
2838.80518,0.93012
2836.87665,0.93411
2834.94811,0.93706
2833.01958,0.93909
2831.09104,0.94033
2829.16250,0.94094
2827.23397,0.94109
2825.30543,0.94083
2823.37690,0.94023
2821.44836,0.93942
2819.51982,0.93853
2817.59129,0.93774
2815.66275,0.93725
2813.73421,0.93716
2811.80568,0.93751
2809.87714,0.93819
2807.94861,0.93912
2806.02007,0.94036
2804.09153,0.94188
2802.16300,0.94365
2800.23446,0.94573
2798.30593,0.94791
2796.37739,0.94983
2794.44885,0.95156
2792.52032,0.95337
2790.59178,0.95514
2788.66325,0.95654
2786.73471,0.95763
2784.80617,0.95866
2782.87764,0.95967
2780.94910,0.96060
2779.02056,0.96154
2777.09203,0.96255
2775.16349,0.96353
2773.23496,0.96425
2771.30642,0.96478
2769.37788,0.96534
2767.44935,0.96597
2765.52081,0.96655
2763.59228,0.96704
2761.66374,0.96748
2759.73520,0.96790
2757.80667,0.96828
2755.87813,0.96864
2753.94959,0.96900
2752.02106,0.96938
2750.09252,0.96973
2748.16399,0.96994
2746.23545,0.96991
2744.30691,0.96971
2742.37838,0.96959
2740.44984,0.96967
2738.52131,0.96983
2736.59277,0.96980
2734.66423,0.96958
2732.73570,0.96948
2730.80716,0.96965
2728.87863,0.97002
2726.95009,0.97047
2725.02155,0.97076
2723.09302,0.97084
2721.16448,0.97087
2719.23594,0.97097
2717.30741,0.97115
2715.37887,0.97138
2713.45034,0.97167
2711.52180,0.97200
2709.59326,0.97227
2707.66473,0.97241
2705.73619,0.97254
2703.80766,0.97276
2701.87912,0.97303
2699.95058,0.97323
2698.02205,0.97327
2696.09351,0.97317
2694.16497,0.97303
2692.23644,0.97288
2690.30790,0.97268
2688.37937,0.97240
2686.45083,0.97205
2684.52229,0.97172
2682.59376,0.97152
2680.66522,0.97142
2678.73669,0.97132
2676.80815,0.97125
2674.87961,0.97130
2672.95108,0.97141
2671.02254,0.97146
2669.09401,0.97146
2667.16547,0.97140
2665.23693,0.97117
2663.30840,0.97078
2661.37986,0.97042
2659.45132,0.97027
2657.52279,0.97036
2655.59425,0.97067
2653.66572,0.97105
2651.73718,0.97134
2649.80864,0.97154
2647.88011,0.97176
2645.95157,0.97203
2644.02304,0.97229
2642.09450,0.97254
2640.16596,0.97285
2638.23743,0.97322
2636.30889,0.97356
2634.38035,0.97381
2632.45182,0.97406
2630.52328,0.97433
2628.59475,0.97454
2626.66621,0.97467
2624.73767,0.97471
2622.80914,0.97463
2620.88060,0.97457
2618.95207,0.97472
2617.02353,0.97497
2615.09499,0.97512
2613.16646,0.97517
2611.23792,0.97524
2609.30939,0.97540
2607.38085,0.97557
2605.45231,0.97569
2603.52378,0.97573
2601.59524,0.97573
2599.66670,0.97579
2597.73817,0.97589
2595.80963,0.97596
2593.88110,0.97601
2591.95256,0.97603
2590.02402,0.97596
2588.09549,0.97581
2586.16695,0.97569
2584.23842,0.97571
2582.30988,0.97586
2580.38134,0.97592
2578.45281,0.97577
2576.52427,0.97559
2574.59573,0.97548
2572.66720,0.97537
2570.73866,0.97527
2568.81013,0.97530
2566.88159,0.97534
2564.95305,0.97523
2563.02452,0.97508
2561.09598,0.97511
2559.16745,0.97527
2557.23891,0.97531
2555.31037,0.97531
2553.38184,0.97535
2551.45330,0.97536
2549.52476,0.97542
2547.59623,0.97553
2545.66769,0.97570
2543.73916,0.97607
2541.81062,0.97649
2539.88208,0.97676
2537.95355,0.97694
2536.02501,0.97717
2534.09648,0.97743
2532.16794,0.97770
2530.23940,0.97782
2528.31087,0.97773
2526.38233,0.97762
2524.45380,0.97754
2522.52526,0.97756
2520.59672,0.97775
2518.66819,0.97800
2516.73965,0.97816
2514.81111,0.97818
2512.88258,0.97808
2510.95404,0.97801
2509.02551,0.97803
2507.09697,0.97805
2505.16843,0.97805
2503.23990,0.97801
2501.31136,0.97791
2499.38283,0.97786
2497.45429,0.97789
2495.52575,0.97788
2493.59722,0.97785
2491.66868,0.97791
2489.74014,0.97809
2487.81161,0.97832
2485.88307,0.97850
2483.95454,0.97868
2482.02600,0.97893
2480.09746,0.97911
2478.16893,0.97912
2476.24039,0.97908
2474.31186,0.97912
2472.38332,0.97922
2470.45478,0.97931
2468.52625,0.97945
2466.59771,0.97960
2464.66918,0.97972
2462.74064,0.97977
2460.81210,0.97972
2458.88357,0.97962
2456.95503,0.97961
2455.02649,0.97972
2453.09796,0.97986
2451.16942,0.97993
2449.24089,0.97997
2447.31235,0.98003
2445.38381,0.98003
2443.45528,0.98004
2441.52674,0.98018
2439.59821,0.98036
2437.66967,0.98046
2435.74113,0.98047
2433.81260,0.98036
2431.88406,0.98020
2429.95552,0.98016
2428.02699,0.98023
2426.09845,0.98027
2424.16992,0.98023
2422.24138,0.98013
2420.31284,0.98003
2418.38431,0.97995
2416.45577,0.97984
2414.52724,0.97978
2412.59870,0.97977
2410.67016,0.97978
2408.74163,0.97991
2406.81309,0.98014
2404.88456,0.98030
2402.95602,0.98036
2401.02748,0.98039
2399.09895,0.98043
2397.17041,0.98044
2395.24187,0.98039
2393.31334,0.98032
2391.38480,0.98028
2389.45627,0.98028
2387.52773,0.98024
2385.59919,0.98013
2383.67066,0.97996
2381.74212,0.97966
2379.81359,0.97930
2377.88505,0.97903
2375.95651,0.97889
2374.02798,0.97848
2372.09944,0.97762
2370.17090,0.97673
2368.24237,0.97583
2366.31383,0.97429
2364.38530,0.97236
2362.45676,0.97135
2360.52822,0.97146
2358.59969,0.97181
2356.67115,0.97230
2354.74262,0.97343
2352.81408,0.97492
2350.88554,0.97592
2348.95701,0.97614
2347.02847,0.97580
2345.09994,0.97527
2343.17140,0.97483
2341.24286,0.97459
2339.31433,0.97465
2337.38579,0.97486
2335.45725,0.97502
2333.52872,0.97517
2331.60018,0.97523
2329.67165,0.97494
2327.74311,0.97430
2325.81457,0.97371
2323.88604,0.97351
2321.95750,0.97378
2320.02897,0.97444
2318.10043,0.97516
2316.17189,0.97549
2314.24336,0.97548
2312.31482,0.97543
2310.38628,0.97550
2308.45775,0.97574
2306.52921,0.97615
2304.60068,0.97655
2302.67214,0.97679
2300.74360,0.97686
2298.81507,0.97683
2296.88653,0.97686
2294.95800,0.97695
2293.02946,0.97699
2291.10092,0.97700
2289.17239,0.97705
2287.24385,0.97719
2285.31532,0.97737
2283.38678,0.97758
2281.45824,0.97778
2279.52971,0.97796
2277.60117,0.97809
2275.67263,0.97816
2273.74410,0.97818
2271.81556,0.97816
2269.88703,0.97811
2267.95849,0.97820
2266.02995,0.97838
2264.10142,0.97831
2262.17288,0.97803
2260.24435,0.97791
2258.31581,0.97812
2256.38727,0.97859
2254.45874,0.97906
2252.53020,0.97932
2250.60166,0.97948
2248.67313,0.97968
2246.74459,0.97980
2244.81606,0.97979
2242.88752,0.97980
2240.95898,0.98005
2239.03045,0.98054
2237.10191,0.98105
2235.17338,0.98142
2233.24484,0.98162
2231.31630,0.98165
2229.38777,0.98154
2227.45923,0.98150
2225.53070,0.98168
2223.60216,0.98195
2221.67362,0.98228
2219.74509,0.98271
2217.81655,0.98300
2215.88801,0.98302
2213.95948,0.98312
2212.03094,0.98324
2210.10241,0.98298
2208.17387,0.98251
2206.24533,0.98248
2204.31680,0.98296
2202.38826,0.98350
2200.45973,0.98392
2198.53119,0.98412
2196.60265,0.98398
2194.67412,0.98367
2192.74558,0.98351
2190.81704,0.98359
2188.88851,0.98359
2186.95997,0.98342
2185.03144,0.98363
2183.10290,0.98439
2181.17436,0.98494
2179.24583,0.98502
2177.31729,0.98499
2175.38876,0.98473
2173.46022,0.98427
2171.53168,0.98390
2169.60315,0.98363
2167.67461,0.98349
2165.74607,0.98342
2163.81754,0.98317
2161.88900,0.98374
2159.96047,0.98598
2158.03193,0.98782
2156.10339,0.98802
2154.17486,0.98763
2152.24632,0.98694
2150.31779,0.98626
2148.38925,0.98619
2146.46071,0.98644
2144.53218,0.98651
2142.60364,0.98632
2140.67511,0.98605
2138.74657,0.98611
2136.81803,0.98654
2134.88950,0.98682
2132.96096,0.98663
2131.03242,0.98615
2129.10389,0.98578
2127.17535,0.98566
2125.24682,0.98557
2123.31828,0.98533
2121.38974,0.98501
2119.46121,0.98481
2117.53267,0.98467
2115.60414,0.98444
2113.67560,0.98423
2111.74706,0.98422
2109.81853,0.98425
2107.88999,0.98420
2105.96145,0.98423
2104.03292,0.98433
2102.10438,0.98434
2100.17585,0.98433
2098.24731,0.98454
2096.31877,0.98489
2094.39024,0.98508
2092.46170,0.98503
2090.53317,0.98493
2088.60463,0.98479
2086.67609,0.98460
2084.74756,0.98443
2082.81902,0.98419
2080.89049,0.98385
2078.96195,0.98362
2077.03341,0.98369
2075.10488,0.98401
2073.17634,0.98436
2071.24780,0.98456
2069.31927,0.98463
2067.39073,0.98462
2065.46220,0.98462
2063.53366,0.98478
2061.60512,0.98503
2059.67659,0.98499
2057.74805,0.98469
2055.81952,0.98456
2053.89098,0.98437
2051.96244,0.98397
2050.03391,0.98413
2048.10537,0.98511
2046.17683,0.98614
2044.24830,0.98655
2042.31976,0.98638
2040.39123,0.98612
2038.46269,0.98615
2036.53415,0.98639
2034.60562,0.98652
2032.67708,0.98635
2030.74855,0.98630
2028.82001,0.98675
2026.89147,0.98719
2024.96294,0.98715
2023.03440,0.98695
2021.10587,0.98706
2019.17733,0.98739
2017.24879,0.98752
2015.32026,0.98738
2013.39172,0.98732
2011.46318,0.98751
2009.53465,0.98789
2007.60611,0.98829
2005.67758,0.98838
2003.74904,0.98810
2001.82050,0.98768
1999.89197,0.98712
1997.96343,0.98643
1996.03490,0.98599
1994.10636,0.98609
1992.17782,0.98661
1990.24929,0.98693
1988.32075,0.98691
1986.39221,0.98688
1984.46368,0.98673
1982.53514,0.98647
1980.60661,0.98668
1978.67807,0.98774
1976.74953,0.98899
1974.82100,0.98955
1972.89246,0.98954
1970.96393,0.98950
1969.03539,0.98965
1967.10685,0.98960
1965.17832,0.98930
1963.24978,0.98920
1961.32125,0.98930
1959.39271,0.98931
1957.46417,0.98920
1955.53564,0.98895
1953.60710,0.98863
1951.67856,0.98853
1949.75003,0.98866
1947.82149,0.98869
1945.89296,0.98846
1943.96442,0.98816
1942.03588,0.98789
1940.10735,0.98764
1938.17881,0.98743
1936.25028,0.98721
1934.32174,0.98705
1932.39320,0.98686
1930.46467,0.98651
1928.53613,0.98626
1926.60759,0.98615
1924.67906,0.98597
1922.75052,0.98574
1920.82199,0.98548
1918.89345,0.98514
1916.96491,0.98491
1915.03638,0.98483
1913.10784,0.98487
1911.17931,0.98508
1909.25077,0.98527
1907.32223,0.98525
1905.39370,0.98521
1903.46516,0.98534
1901.53663,0.98554
1899.60809,0.98561
1897.67955,0.98555
1895.75102,0.98541
1893.82248,0.98529
1891.89394,0.98535
1889.96541,0.98557
1888.03687,0.98569
1886.10834,0.98558
1884.17980,0.98542
1882.25126,0.98535
1880.32273,0.98535
1878.39419,0.98535
1876.46566,0.98529
1874.53712,0.98515
1872.60858,0.98506
1870.68005,0.98504
1868.75151,0.98484
1866.82297,0.98452
1864.89444,0.98434
1862.96590,0.98429
1861.03737,0.98427
1859.10883,0.98424
1857.18029,0.98420
1855.25176,0.98418
1853.32322,0.98411
1851.39469,0.98397
1849.46615,0.98389
1847.53761,0.98392
1845.60908,0.98382
1843.68054,0.98364
1841.75200,0.98354
1839.82347,0.98344
1837.89493,0.98320
1835.96640,0.98291
1834.03786,0.98275
1832.10932,0.98266
1830.18079,0.98244
1828.25225,0.98215
1826.32372,0.98195
1824.39518,0.98179
1822.46664,0.98168
1820.53811,0.98168
1818.60957,0.98171
1816.68104,0.98162
1814.75250,0.98142
1812.82396,0.98129
1810.89543,0.98121
1808.96689,0.98110
1807.03835,0.98096
1805.10982,0.98081
1803.18128,0.98065
1801.25275,0.98037
1799.32421,0.98001
1797.39567,0.97979
1795.46714,0.97972
1793.53860,0.97965
1791.61007,0.97958
1789.68153,0.97960
1787.75299,0.97965
1785.82446,0.97969
1783.89592,0.97969
1781.96738,0.97970
1780.03885,0.97977
1778.11031,0.97987
1776.18178,0.97994
1774.25324,0.98001
1772.32470,0.98015
1770.39617,0.98022
1768.46763,0.98018
1766.53910,0.98016
1764.61056,0.98012
1762.68202,0.97995
1760.75349,0.97961
1758.82495,0.97922
1756.89642,0.97874
1754.96788,0.97822
1753.03934,0.97777
1751.11081,0.97719
1749.18227,0.97622
1747.25373,0.97520
1745.32520,0.97448
1743.39666,0.97393
1741.46813,0.97338
1739.53959,0.97274
1737.61105,0.97221
1735.68252,0.97193
1733.75398,0.97182
1731.82545,0.97191
1729.89691,0.97207
1727.96837,0.97232
1726.03984,0.97270
1724.11130,0.97312
1722.18276,0.97348
1720.25423,0.97381
1718.32569,0.97428
1716.39716,0.97496
1714.46862,0.97539
1712.54008,0.97560
1710.61155,0.97583
1708.68301,0.97613
1706.75448,0.97647
1704.82594,0.97680
1702.89740,0.97703
1700.96887,0.97716
1699.04033,0.97716
1697.11180,0.97693
1695.18326,0.97671
1693.25472,0.97668
1691.32619,0.97679
1689.39765,0.97689
1687.46911,0.97688
1685.54058,0.97679
1683.61204,0.97650
1681.68351,0.97607
1679.75497,0.97570
1677.82643,0.97536
1675.89790,0.97477
1673.96936,0.97377
1672.04083,0.97280
1670.11229,0.97165
1668.18375,0.97050
1666.25522,0.96997
1664.32668,0.96975
1662.39814,0.96962
1660.46961,0.96958
1658.54107,0.96958
1656.61254,0.96949
1654.68400,0.96894
1652.75546,0.96683
1650.82693,0.96503
1648.89839,0.96362
1646.96986,0.96080
1645.04132,0.95831
1643.11278,0.95733
1641.18425,0.95644
1639.25571,0.95521
1637.32718,0.95279
1635.39864,0.94725
1633.47010,0.94232
1631.54157,0.93955
1629.61303,0.93719
1627.68449,0.93521
1625.75596,0.93433
1623.82742,0.93474
1621.89889,0.93579
1619.97035,0.93629
1618.04181,0.93537
1616.11328,0.93128
1614.18474,0.92497
1612.25621,0.91596
1610.32767,0.89862
1608.39913,0.86640
1606.47060,0.82100
1604.54206,0.77129
1602.61352,0.72886
1600.68499,0.71112
1598.75645,0.72409
1596.82792,0.75732
1594.89938,0.79664
1592.97084,0.82896
1591.04231,0.85069
1589.11377,0.86490
1587.18524,0.87341
1585.25670,0.87701
1583.32816,0.87624
1581.39963,0.87172
1579.47109,0.86521
1577.54256,0.85699
1575.61402,0.84953
1573.68548,0.85066
1571.75695,0.85960
1569.82841,0.87898
1567.89987,0.90062
1565.97134,0.91231
1564.04280,0.91850
1562.11427,0.92170
1560.18573,0.92379
1558.25719,0.92906
1556.32866,0.93448
1554.40012,0.93952
1552.47159,0.94458
1550.54305,0.94891
1548.61451,0.95223
1546.68598,0.95407
1544.75744,0.95508
1542.82890,0.95586
1540.90037,0.95625
1538.97183,0.95567
1537.04330,0.95503
1535.11476,0.95420
1533.18622,0.95262
1531.25769,0.95094
1529.32915,0.94969
1527.40062,0.94834
1525.47208,0.94681
1523.54354,0.94533
1521.61501,0.94254
1519.68647,0.93856
1517.75793,0.93311
1515.82940,0.92449
1513.90086,0.91437
1511.97233,0.90238
1510.04379,0.88746
1508.11525,0.85997
1506.18672,0.80911
1504.25818,0.78665
1502.32965,0.77782
1500.40111,0.76856
1498.47257,0.75958
1496.54404,0.75761
1494.61550,0.76396
1492.68697,0.77242
1490.75843,0.78348
1488.82989,0.79668
1486.90136,0.80533
1484.97282,0.81159
1483.04428,0.82005
1481.11575,0.83258
1479.18721,0.84656
1477.25868,0.85991
1475.33014,0.87298
1473.40160,0.88553
1471.47307,0.89414
1469.54453,0.89669
1467.61600,0.89671
1465.68746,0.89550
1463.75892,0.89337
1461.83039,0.89114
1459.90185,0.88812
1457.97331,0.87883
1456.04478,0.86098
1454.11624,0.84965
1452.18771,0.84141
1450.25917,0.83353
1448.33063,0.82680
1446.40210,0.82273
1444.47356,0.82206
1442.54503,0.82422
1440.61649,0.82814
1438.68795,0.83148
1436.75942,0.82992
1434.83088,0.82165
1432.90235,0.81272
1430.97381,0.80639
1429.04527,0.80569
1427.11674,0.80955
1425.18820,0.81419
1423.25966,0.81848
1421.33113,0.82243
1419.40259,0.82772
1417.47406,0.83331
1415.54552,0.83612
1413.61698,0.83668
1411.68845,0.83407
1409.75991,0.82679
1407.83138,0.81495
1405.90284,0.79705
1403.97430,0.77379
1402.04577,0.75297
1400.11723,0.73470
1398.18869,0.71762
1396.26016,0.70700
1394.33162,0.70562
1392.40309,0.71231
1390.47455,0.72511
1388.54601,0.74645
1386.61748,0.77645
1384.68894,0.80281
1382.76041,0.82042
1380.83187,0.83124
1378.90333,0.83442
1376.97480,0.82893
1375.04626,0.81083
1373.11773,0.77934
1371.18919,0.74592
1369.26065,0.71419
1367.33212,0.68823
1365.40358,0.67646
1363.47504,0.68115
1361.54651,0.69972
1359.61797,0.72022
1357.68944,0.73798
1355.76090,0.75507
1353.83236,0.77121
1351.90383,0.78341
1349.97529,0.78814
1348.04676,0.78203
1346.11822,0.76400
1344.18968,0.73798
1342.26115,0.71049
1340.33261,0.68560
1338.40407,0.66950
1336.47554,0.66765
1334.54700,0.67562
1332.61847,0.68774
1330.68993,0.70013
1328.76139,0.71096
1326.83286,0.72198
1324.90432,0.73657
1322.97579,0.75601
1321.04725,0.77856
1319.11871,0.80160
1317.19018,0.82166
1315.26164,0.83693
1313.33311,0.84869
1311.40457,0.85711
1309.47603,0.86114
1307.54750,0.86075
1305.61896,0.85703
1303.69042,0.85099
1301.76189,0.84242
1299.83335,0.83048
1297.90482,0.81313
1295.97628,0.78683
1294.04774,0.74911
1292.11921,0.70135
1290.19067,0.64855
1288.26214,0.59733
1286.33360,0.55500
1284.40506,0.52812
1282.47653,0.52151
1280.54799,0.53755
1278.61945,0.57162
1276.69092,0.61116
1274.76238,0.64319
1272.83385,0.66180
1270.90531,0.66812
1268.97677,0.66740
1267.04824,0.66603
1265.11970,0.66861
1263.19117,0.67681
1261.26263,0.68956
1259.33409,0.70324
1257.40556,0.71270
1255.47702,0.71477
1253.54849,0.71040
1251.61995,0.70437
1249.69141,0.70267
1247.76288,0.70892
1245.83434,0.72320
1243.90580,0.74281
1241.97727,0.76320
1240.04873,0.77977
1238.12020,0.79006
1236.19166,0.79398
1234.26312,0.79287
1232.33459,0.78890
1230.40605,0.78487
1228.47752,0.78414
1226.54898,0.78936
1224.62044,0.80105
1222.69191,0.81741
1220.76337,0.83552
1218.83483,0.85266
1216.90630,0.86680
1214.97776,0.87713
1213.04923,0.88380
1211.12069,0.88728
1209.19215,0.88807
1207.26362,0.88663
1205.33508,0.88317
1203.40655,0.87748
1201.47801,0.86894
1199.54947,0.85677
1197.62094,0.84027
1195.69240,0.81927
1193.76387,0.79437
1191.83533,0.76690
1189.90679,0.73857
1187.97826,0.71093
1186.04972,0.68506
1184.12118,0.66187
1182.19265,0.64172
1180.26411,0.62427
1178.33558,0.60892
1176.40704,0.59537
1174.47850,0.58379
1172.54997,0.57416
1170.62143,0.56507
1168.69290,0.55412
1166.76436,0.54048
1164.83582,0.52640
1162.90729,0.51562
1160.97875,0.51093
1159.05021,0.51295
1157.12168,0.52021
1155.19314,0.52979
1153.26461,0.53838
1151.33607,0.54343
1149.40753,0.54367
1147.47900,0.53906
1145.55046,0.53049
1143.62193,0.51915
1141.69339,0.50590
1139.76485,0.49137
1137.83632,0.47628
1135.90778,0.46124
1133.97924,0.44665
1132.05071,0.43316
1130.12217,0.42207
1128.19364,0.41521
1126.26510,0.41423
1124.33656,0.42037
1122.40803,0.43449
1120.47949,0.45636
1118.55096,0.48363
1116.62242,0.51175
1114.69388,0.53573
1112.76535,0.55250
1110.83681,0.56297
1108.90828,0.57139
1106.97974,0.58280
1105.05120,0.60028
1103.12267,0.62339
1101.19413,0.64882
1099.26559,0.67268
1097.33706,0.69223
1095.40852,0.70696
1093.47999,0.71888
1091.55145,0.73114
1089.62291,0.74540
1087.69438,0.76041
1085.76584,0.77321
1083.83731,0.78082
1081.90877,0.78085
1079.98023,0.77251
1078.05170,0.75903
1076.12316,0.74806
1074.19462,0.74654
1072.26609,0.75448
1070.33755,0.76582
1068.40902,0.77502
1066.48048,0.78078
1064.55194,0.78507
1062.62341,0.79035
1060.69487,0.79765
1058.76634,0.80625
1056.83780,0.81428
1054.90926,0.81959
1052.98073,0.82127
1051.05219,0.82035
1049.12366,0.81818
1047.19512,0.81441
1045.26658,0.80822
1043.33805,0.80232
1041.40951,0.80245
1039.48097,0.81115
1037.55244,0.82481
1035.62390,0.83762
1033.69537,0.84587
1031.76683,0.84831
1029.83829,0.84534
1027.90976,0.83896
1025.98122,0.83289
1024.05269,0.83054
1022.12415,0.83267
1020.19561,0.83648
1018.26708,0.83642
1016.33854,0.82686
1014.41000,0.80768
1012.48147,0.78742
1010.55293,0.77735
1008.62440,0.78140
1006.69586,0.79495
1004.76732,0.81131
1002.83879,0.82611
1000.91025,0.83699
998.98172,0.84191
997.05318,0.83667
995.12464,0.81288
993.19611,0.76603
991.26757,0.71525
989.33904,0.69494
987.41050,0.70876
985.48196,0.72270
983.55343,0.71209
981.62489,0.68106
979.69635,0.64231
977.76782,0.60389
975.83928,0.56987
973.91075,0.54292
971.98221,0.52546
970.05367,0.51953
968.12514,0.52556
966.19660,0.54180
964.26807,0.56448
962.33953,0.58896
960.41099,0.61174
958.48246,0.63110
956.55392,0.64715
954.62538,0.66263
952.69685,0.68176
950.76831,0.70621
948.83978,0.73355
946.91124,0.75982
944.98270,0.78203
943.05417,0.79857
941.12563,0.80952
939.19710,0.81705
937.26856,0.82408
935.34002,0.83161
933.41149,0.83832
931.48295,0.84190
929.55442,0.84014
927.62588,0.83277
925.69734,0.82218
923.76881,0.81136
921.84027,0.80192
919.91173,0.79375
917.98320,0.78548
916.05466,0.77585
914.12613,0.76513
912.19759,0.75465
910.26905,0.74517
908.34052,0.73635
906.41198,0.72744
904.48345,0.71768
902.55491,0.70665
900.62637,0.69487
898.69784,0.68403
896.76930,0.67614
894.84076,0.67248
892.91223,0.67334
890.98369,0.67814
889.05516,0.68608
887.12662,0.69657
885.19808,0.70800
883.26955,0.71700
881.34101,0.72070
879.41248,0.71965
877.48394,0.71723
875.55540,0.71614
873.62687,0.71729
871.69833,0.72134
869.76980,0.72871
867.84126,0.73876
865.91272,0.74979
863.98419,0.75966
862.05565,0.76651
860.12711,0.76946
858.19858,0.76858
856.27004,0.76468
854.34151,0.75936
852.41297,0.75509
850.48443,0.75404
848.55590,0.75721
846.62736,0.76454
844.69883,0.77539
842.77029,0.78866
840.84175,0.80299
838.91322,0.81698
836.98468,0.82943
835.05614,0.83967
833.12761,0.84738
831.19907,0.85237
829.27054,0.85469
827.34200,0.85510
825.41346,0.85496
823.48493,0.85499
821.55639,0.85469
819.62786,0.85350
817.69932,0.85198
815.77078,0.85058
813.84225,0.84782
811.91371,0.84131
809.98517,0.83052
808.05664,0.81920
806.12810,0.81395
804.19957,0.81802
802.27103,0.82789
800.34249,0.83737
798.41396,0.84285
796.48542,0.84335
794.55689,0.83814
792.62835,0.82639
790.69981,0.80800
788.77128,0.78409
786.84274,0.75725
784.91421,0.73090
782.98567,0.70815
781.05713,0.69183
779.12860,0.68500
777.20006,0.68922
775.27152,0.70110
773.34299,0.71339
771.41445,0.72181
769.48592,0.72928
767.55738,0.74131
765.62884,0.75730
763.70031,0.76914
761.77177,0.76954
759.84324,0.75928
757.91470,0.74637
755.98616,0.73981
754.05763,0.74381
752.12909,0.75707
750.20055,0.77532
748.27202,0.79324
746.34348,0.80539
744.41495,0.80783
742.48641,0.79936
740.55787,0.78067
738.62934,0.75296
736.70080,0.72184
734.77227,0.70109
732.84373,0.70110
730.91519,0.71716
728.98666,0.73852
727.05812,0.75950
725.12959,0.77790
723.20105,0.79154
721.27251,0.79836
719.34398,0.79635
717.41544,0.78344
715.48690,0.75870
713.55837,0.72563
711.62983,0.69551
709.70130,0.68035
707.77276,0.67830
705.84422,0.67755
703.91569,0.68330
701.98715,0.71179
700.05862,0.75574
698.13008,0.79322
696.20154,0.81641
694.27301,0.82983
692.34447,0.83814
690.41593,0.84384
688.48740,0.84860
686.55886,0.85316
684.63033,0.85703
682.70179,0.85853
680.77325,0.85374
678.84472,0.83746
676.91618,0.81206
674.98765,0.79140
673.05911,0.78419
671.13057,0.78264
669.20204,0.76568
667.27350,0.72614
665.34497,0.71247
663.41643,0.73157
661.48789,0.76917
659.55936,0.80582
657.63082,0.82886
655.70228,0.83797
653.77375,0.83538
651.84521,0.82750
649.91668,0.82388
647.98814,0.82825
646.05960,0.83669
644.13107,0.84462
642.20253,0.85013
640.27400,0.85277
638.34546,0.85169
636.41692,0.84605
634.48839,0.83749
632.55985,0.83059
630.63131,0.82888
628.70278,0.83212
626.77424,0.83806
624.84571,0.84472
622.91717,0.85126
620.98863,0.85753
619.06010,0.86359
617.13156,0.86921
615.20303,0.87366
613.27449,0.87657
611.34595,0.87798
609.41742,0.87773
607.48888,0.87524
605.56035,0.86957
603.63181,0.86019
601.70327,0.84781
599.77474,0.83490
597.84620,0.82569
595.91766,0.82296
593.98913,0.82515
592.06059,0.82737
590.13206,0.82392
588.20352,0.81270
586.27498,0.79650
584.34645,0.78117
582.41791,0.77170
580.48938,0.76856
578.56084,0.76992
576.63230,0.77445
574.70377,0.78121
572.77523,0.78909
570.84669,0.79753
568.91816,0.80568
566.98962,0.81207
565.06109,0.81616
563.13255,0.81861
561.20401,0.81991
559.27548,0.82007
557.34694,0.81932
555.41841,0.81808
553.48987,0.81616
551.56133,0.81286
549.63280,0.80798
547.70426,0.80106
545.77573,0.79089
543.84719,0.77723
541.91865,0.76082
539.99012,0.74294
538.06158,0.72523
536.13304,0.70663
534.20451,0.68479
532.27597,0.66221
530.34744,0.64636
528.41890,0.64278
526.49036,0.65069
524.56183,0.66338
522.63329,0.67225
520.70476,0.67229
518.77622,0.65973
516.84768,0.63771
514.91915,0.61977
512.99061,0.61509
511.06207,0.62538
509.13354,0.64677
507.20500,0.66938
505.27647,0.68283
503.34793,0.68434
501.41939,0.67922
499.49086,0.67732
497.56232,0.68475
495.63379,0.69983
493.70525,0.71561
491.77671,0.72538
489.84818,0.72687
487.91964,0.72249
485.99110,0.71575
484.06257,0.71067
482.13403,0.71202
480.20550,0.72159
478.27696,0.73746
476.34842,0.75459
474.41989,0.76749
472.49135,0.77342
470.56282,0.77136
468.63428,0.76228
466.70574,0.74902
464.77721,0.73705
462.84867,0.73106
460.92014,0.73295
458.99160,0.74349
457.06306,0.76006
455.13453,0.77189
453.20599,0.77626
451.27745,0.77738
449.34892,0.77815
447.42038,0.77965
445.49185,0.78142
443.56331,0.78316
441.63477,0.78470
439.70624,0.78573
437.77770,0.78659
435.84917,0.78746
433.92063,0.78733
431.99209,0.78466
430.06356,0.77922
428.13502,0.77304
426.20648,0.76836
424.27795,0.76399
422.34941,0.75805
420.42088,0.75352
418.49234,0.75873
416.56380,0.77168
414.63527,0.78278
412.70673,0.79194
410.77820,0.79857
408.84966,0.80104
406.92112,0.79894
404.99259,0.79751
403.06405,0.80091
401.13552,0.80493
399.20698,0.80516
