3997.85540,0.94643
3995.92686,0.94640
3993.99833,0.94653
3992.06979,0.94674
3990.14125,0.94681
3988.21272,0.94669
3986.28418,0.94663
3984.35565,0.94675
3982.42711,0.94686
3980.49857,0.94686
3978.57004,0.94683
3976.64150,0.94681
3974.71297,0.94677
3972.78443,0.94672
3970.85589,0.94671
3968.92736,0.94670
3966.99882,0.94673
3965.07029,0.94679
3963.14175,0.94683
3961.21321,0.94692
3959.28468,0.94704
3957.35614,0.94713
3955.42760,0.94721
3953.49907,0.94731
3951.57053,0.94733
3949.64200,0.94724
3947.71346,0.94707
3945.78492,0.94698
3943.85639,0.94700
3941.92785,0.94705
3939.99932,0.94709
3938.07078,0.94706
3936.14224,0.94701
3934.21371,0.94702
3932.28517,0.94705
3930.35663,0.94701
3928.42810,0.94701
3926.49956,0.94709
3924.57103,0.94720
3922.64249,0.94734
3920.71395,0.94741
3918.78542,0.94733
3916.85688,0.94725
3914.92835,0.94732
3912.99981,0.94750
3911.07127,0.94769
3909.14274,0.94785
3907.21420,0.94793
3905.28566,0.94780
3903.35713,0.94761
3901.42859,0.94766
3899.50006,0.94764
3897.57152,0.94756
3895.64298,0.94772
3893.71445,0.94799
3891.78591,0.94805
3889.85738,0.94790
3887.92884,0.94776
3886.00030,0.94757
3884.07177,0.94742
3882.14323,0.94743
3880.21470,0.94746
3878.28616,0.94763
3876.35762,0.94793
3874.42909,0.94807
3872.50055,0.94797
3870.57201,0.94782
3868.64348,0.94786
3866.71494,0.94804
3864.78641,0.94810
3862.85787,0.94799
3860.92933,0.94793
3859.00080,0.94799
3857.07226,0.94815
3855.14373,0.94826
3853.21519,0.94812
3851.28665,0.94822
3849.35812,0.94843
3847.42958,0.94849
3845.50104,0.94847
3843.57251,0.94844
3841.64397,0.94849
3839.71544,0.94843
3837.78690,0.94808
3835.85836,0.94792
3833.92983,0.94804
3832.00129,0.94811
3830.07276,0.94812
3828.14422,0.94818
3826.21568,0.94819
3824.28715,0.94820
3822.35861,0.94823
3820.43008,0.94822
3818.50154,0.94842
3816.57300,0.94862
3814.64447,0.94865
3812.71593,0.94870
3810.78739,0.94878
3808.85886,0.94876
3806.93032,0.94856
3805.00179,0.94850
3803.07325,0.94868
3801.14471,0.94866
3799.21618,0.94856
3797.28764,0.94855
3795.35911,0.94849
3793.43057,0.94853
3791.50203,0.94866
3789.57350,0.94875
3787.64496,0.94881
3785.71642,0.94881
3783.78789,0.94873
3781.85935,0.94873
3779.93082,0.94880
3778.00228,0.94889
3776.07374,0.94902
3774.14521,0.94917
3772.21667,0.94928
3770.28814,0.94927
3768.35960,0.94916
3766.43106,0.94913
3764.50253,0.94911
3762.57399,0.94910
3760.64546,0.94904
3758.71692,0.94894
3756.78838,0.94907
3754.85985,0.94934
3752.93131,0.94956
3751.00277,0.94954
3749.07424,0.94929
3747.14570,0.94914
3745.21717,0.94893
3743.28863,0.94879
3741.36009,0.94901
3739.43156,0.94936
3737.50302,0.94958
3735.57449,0.94946
3733.64595,0.94910
3731.71741,0.94903
3729.78888,0.94933
3727.86034,0.94976
3725.93180,0.95004
3724.00327,0.95001
3722.07473,0.94982
3720.14620,0.94962
3718.21766,0.94959
3716.28912,0.94982
3714.36059,0.95016
3712.43205,0.95024
3710.50352,0.94982
3708.57498,0.94971
3706.64644,0.94982
3704.71791,0.94985
3702.78937,0.94983
3700.86084,0.94984
3698.93230,0.94982
3697.00376,0.94968
3695.07523,0.94951
3693.14669,0.94932
3691.21815,0.94889
3689.28962,0.94788
3687.36108,0.94699
3685.43255,0.94672
3683.50401,0.94678
3681.57547,0.94703
3679.64694,0.94741
3677.71840,0.94791
3675.78987,0.94825
3673.86133,0.94831
3671.93279,0.94846
3670.00426,0.94852
3668.07572,0.94861
3666.14718,0.94887
3664.21865,0.94906
3662.29011,0.94913
3660.36158,0.94919
3658.43304,0.94920
3656.50450,0.94890
3654.57597,0.94863
3652.64743,0.94878
3650.71890,0.94882
3648.79036,0.94789
3646.86182,0.94738
3644.93329,0.94764
3643.00475,0.94791
3641.07622,0.94807
3639.14768,0.94816
3637.21914,0.94819
3635.29061,0.94818
3633.36207,0.94820
3631.43353,0.94831
3629.50500,0.94840
3627.57646,0.94828
3625.64793,0.94827
3623.71939,0.94837
3621.79085,0.94848
3619.86232,0.94847
3617.93378,0.94836
3616.00525,0.94842
3614.07671,0.94860
3612.14817,0.94861
3610.21964,0.94844
3608.29110,0.94832
3606.36256,0.94850
3604.43403,0.94883
3602.50549,0.94894
3600.57696,0.94876
3598.64842,0.94852
3596.71988,0.94842
3594.79135,0.94850
3592.86281,0.94868
3590.93428,0.94883
3589.00574,0.94877
3587.07720,0.94845
3585.14867,0.94830
3583.22013,0.94837
3581.29160,0.94841
3579.36306,0.94833
3577.43452,0.94821
3575.50599,0.94820
3573.57745,0.94829
3571.64891,0.94839
3569.72038,0.94845
3567.79184,0.94822
3565.86331,0.94774
3563.93477,0.94760
3562.00623,0.94763
3560.07770,0.94768
3558.14916,0.94771
3556.22063,0.94765
3554.29209,0.94750
3552.36355,0.94741
3550.43502,0.94749
3548.50648,0.94758
3546.57794,0.94745
3544.64941,0.94725
3542.72087,0.94726
3540.79234,0.94739
3538.86380,0.94742
3536.93526,0.94731
3535.00673,0.94725
3533.07819,0.94726
3531.14966,0.94716
3529.22112,0.94698
3527.29258,0.94690
3525.36405,0.94696
3523.43551,0.94699
3521.50697,0.94690
3519.57844,0.94676
3517.64990,0.94666
3515.72137,0.94654
3513.79283,0.94642
3511.86429,0.94634
3509.93576,0.94618
3508.00722,0.94599
3506.07869,0.94592
3504.15015,0.94585
3502.22161,0.94570
3500.29308,0.94563
3498.36454,0.94562
3496.43601,0.94560
3494.50747,0.94556
3492.57893,0.94549
3490.65040,0.94537
3488.72186,0.94519
3486.79332,0.94506
3484.86479,0.94502
3482.93625,0.94493
3481.00772,0.94476
3479.07918,0.94464
3477.15064,0.94459
3475.22211,0.94456
3473.29357,0.94445
3471.36504,0.94431
3469.43650,0.94417
3467.50796,0.94401
3465.57943,0.94396
3463.65089,0.94399
3461.72235,0.94391
3459.79382,0.94374
3457.86528,0.94358
3455.93675,0.94343
3454.00821,0.94331
3452.07967,0.94326
3450.15114,0.94322
3448.22260,0.94314
3446.29407,0.94292
3444.36553,0.94260
3442.43699,0.94240
3440.50846,0.94241
3438.57992,0.94249
3436.65139,0.94246
3434.72285,0.94232
3432.79431,0.94214
3430.86578,0.94192
3428.93724,0.94172
3427.00870,0.94156
3425.08017,0.94142
3423.15163,0.94124
3421.22310,0.94111
3419.29456,0.94105
3417.36602,0.94097
3415.43749,0.94085
3413.50895,0.94075
3411.58042,0.94068
3409.65188,0.94058
3407.72334,0.94040
3405.79481,0.94026
3403.86627,0.94027
3401.93773,0.94028
3400.00920,0.94019
3398.08066,0.94008
3396.15213,0.93994
3394.22359,0.93979
3392.29505,0.93962
3390.36652,0.93943
3388.43798,0.93934
3386.50945,0.93931
3384.58091,0.93927
3382.65237,0.93925
3380.72384,0.93927
3378.79530,0.93928
3376.86677,0.93928
3374.93823,0.93928
3373.00969,0.93929
3371.08116,0.93937
3369.15262,0.93953
3367.22408,0.93960
3365.29555,0.93953
3363.36701,0.93949
3361.43848,0.93949
3359.50994,0.93951
3357.58140,0.93952
3355.65287,0.93955
3353.72433,0.93960
3351.79580,0.93964
3349.86726,0.93965
3347.93872,0.93967
3346.01019,0.93978
3344.08165,0.93992
3342.15311,0.94000
3340.22458,0.94001
3338.29604,0.94003
3336.36751,0.94007
3334.43897,0.94017
3332.51043,0.94035
3330.58190,0.94052
3328.65336,0.94062
3326.72483,0.94065
3324.79629,0.94058
3322.86775,0.94051
3320.93922,0.94060
3319.01068,0.94074
3317.08215,0.94078
3315.15361,0.94080
3313.22507,0.94096
3311.29654,0.94112
3309.36800,0.94115
3307.43946,0.94111
3305.51093,0.94112
3303.58239,0.94129
3301.65386,0.94154
3299.72532,0.94166
3297.79678,0.94161
3295.86825,0.94154
3293.93971,0.94157
3292.01118,0.94162
3290.08264,0.94163
3288.15410,0.94162
3286.22557,0.94165
3284.29703,0.94177
3282.36849,0.94190
3280.43996,0.94197
3278.51142,0.94193
3276.58289,0.94190
3274.65435,0.94203
3272.72581,0.94224
3270.79728,0.94238
3268.86874,0.94246
3266.94021,0.94252
3265.01167,0.94254
3263.08313,0.94250
3261.15460,0.94258
3259.22606,0.94273
3257.29753,0.94284
3255.36899,0.94290
3253.44045,0.94292
3251.51192,0.94294
3249.58338,0.94305
3247.65484,0.94322
3245.72631,0.94330
3243.79777,0.94334
3241.86924,0.94342
3239.94070,0.94346
3238.01216,0.94350
3236.08363,0.94367
3234.15509,0.94386
3232.22656,0.94379
3230.29802,0.94349
3228.36948,0.94323
3226.44095,0.94313
3224.51241,0.94311
3222.58387,0.94315
3220.65534,0.94325
3218.72680,0.94339
3216.79827,0.94356
3214.86973,0.94367
3212.94119,0.94352
3211.01266,0.94328
3209.08412,0.94320
3207.15559,0.94328
3205.22705,0.94330
3203.29851,0.94321
3201.36998,0.94305
3199.44144,0.94291
3197.51290,0.94284
3195.58437,0.94279
3193.65583,0.94276
3191.72730,0.94283
3189.79876,0.94289
3187.87022,0.94275
3185.94169,0.94252
3184.01315,0.94246
3182.08462,0.94257
3180.15608,0.94272
3178.22754,0.94283
3176.29901,0.94285
3174.37047,0.94283
3172.44194,0.94285
3170.51340,0.94295
3168.58486,0.94313
3166.65633,0.94331
3164.72779,0.94347
3162.79925,0.94363
3160.87072,0.94381
3158.94218,0.94403
3157.01365,0.94445
3155.08511,0.94511
3153.15657,0.94558
3151.22804,0.94555
3149.29950,0.94527
3147.37097,0.94499
3145.44243,0.94481
3143.51389,0.94492
3141.58536,0.94539
3139.65682,0.94578
3137.72828,0.94569
3135.79975,0.94528
3133.87121,0.94495
3131.94268,0.94485
3130.01414,0.94482
3128.08560,0.94465
3126.15707,0.94438
3124.22853,0.94436
3122.30000,0.94465
3120.37146,0.94489
3118.44292,0.94480
3116.51439,0.94444
3114.58585,0.94389
3112.65732,0.94325
3110.72878,0.94274
3108.80024,0.94231
3106.87171,0.94175
3104.94317,0.94118
3103.01463,0.94085
3101.08610,0.94072
3099.15756,0.94055
3097.22903,0.94018
3095.30049,0.93965
3093.37195,0.93900
3091.44342,0.93828
3089.51488,0.93753
3087.58635,0.93674
3085.65781,0.93603
3083.72927,0.93556
3081.80074,0.93536
3079.87220,0.93535
3077.94366,0.93536
3076.01513,0.93526
3074.08659,0.93507
3072.15806,0.93493
3070.22952,0.93483
3068.30098,0.93468
3066.37245,0.93442
3064.44391,0.93406
3062.51538,0.93368
3060.58684,0.93334
3058.65830,0.93316
3056.72977,0.93313
3054.80123,0.93320
3052.87270,0.93330
3050.94416,0.93334
3049.01562,0.93341
3047.08709,0.93365
3045.15855,0.93408
3043.23001,0.93468
3041.30148,0.93541
3039.37294,0.93621
3037.44441,0.93707
3035.51587,0.93799
3033.58733,0.93886
3031.65880,0.93952
3029.73026,0.93992
3027.80173,0.94020
3025.87319,0.94054
3023.94465,0.94091
3022.01612,0.94123
3020.08758,0.94151
3018.15904,0.94177
3016.23051,0.94185
3014.30197,0.94173
3012.37344,0.94149
3010.44490,0.94114
3008.51636,0.94066
3006.58783,0.94016
3004.65929,0.93970
3002.73076,0.93924
3000.80222,0.93874
2998.87368,0.93824
2996.94515,0.93780
2995.01661,0.93741
2993.08808,0.93699
2991.15954,0.93644
2989.23100,0.93572
2987.30247,0.93487
2985.37393,0.93385
2983.44539,0.93254
2981.51686,0.93080
2979.58832,0.92847
2977.65979,0.92555
2975.73125,0.92210
2973.80271,0.91809
2971.87418,0.91355
2969.94564,0.90865
2968.01711,0.90353
2966.08857,0.89838
2964.16003,0.89348
2962.23150,0.88917
2960.30296,0.88568
2958.37442,0.88307
2956.44589,0.88134
2954.51735,0.88052
2952.58882,0.88068
2950.66028,0.88168
2948.73174,0.88300
2946.80321,0.88391
2944.87467,0.88367
2942.94614,0.88189
2941.01760,0.87858
2939.08906,0.87391
2937.16053,0.86806
2935.23199,0.86136
2933.30346,0.85426
2931.37492,0.84719
2929.44638,0.84058
2927.51785,0.83489
2925.58931,0.83064
2923.66077,0.82829
2921.73224,0.82821
2919.80370,0.83039
2917.87517,0.83439
2915.94663,0.83957
2914.01809,0.84524
2912.08956,0.85077
2910.16102,0.85586
2908.23249,0.86046
2906.30395,0.86465
2904.37541,0.86848
2902.44688,0.87202
2900.51834,0.87537
2898.58980,0.87870
2896.66127,0.88202
2894.73273,0.88514
2892.80420,0.88814
2890.87566,0.89121
2888.94712,0.89420
2887.01859,0.89685
2885.09005,0.89904
2883.16152,0.90061
2881.23298,0.90139
2879.30444,0.90132
2877.37591,0.90044
2875.44737,0.89893
2873.51883,0.89712
2871.59030,0.89541
2869.66176,0.89404
2867.73323,0.89279
2865.80469,0.89116
2863.87615,0.88876
2861.94762,0.88542
2860.01908,0.88121
2858.09055,0.87666
2856.16201,0.87262
2854.23347,0.87009
2852.30494,0.86993
2850.37640,0.87252
2848.44787,0.87739
2846.51933,0.88344
2844.59079,0.88985
2842.66226,0.89636
2840.73372,0.90266
2838.80518,0.90831
2836.87665,0.91312
2834.94811,0.91707
2833.01958,0.92025
2831.09104,0.92284
2829.16250,0.92505
2827.23397,0.92700
2825.30543,0.92874
2823.37690,0.93020
2821.44836,0.93139
2819.51982,0.93241
2817.59129,0.93331
2815.66275,0.93408
2813.73421,0.93481
2811.80568,0.93555
2809.87714,0.93623
2807.94861,0.93674
2806.02007,0.93719
2804.09153,0.93766
2802.16300,0.93814
2800.23446,0.93862
2798.30593,0.93910
2796.37739,0.93951
2794.44885,0.93984
2792.52032,0.94015
2790.59178,0.94051
2788.66325,0.94083
2786.73471,0.94104
2784.80617,0.94124
2782.87764,0.94142
2780.94910,0.94158
2779.02056,0.94183
2777.09203,0.94220
2775.16349,0.94256
2773.23496,0.94274
2771.30642,0.94278
2769.37788,0.94279
2767.44935,0.94285
2765.52081,0.94294
2763.59228,0.94304
2761.66374,0.94317
2759.73520,0.94333
2757.80667,0.94340
2755.87813,0.94337
2753.94959,0.94345
2752.02106,0.94376
2750.09252,0.94410
2748.16399,0.94413
2746.23545,0.94387
2744.30691,0.94356
2742.37838,0.94339
2740.44984,0.94342
2738.52131,0.94355
2736.59277,0.94359
2734.66423,0.94351
2732.73570,0.94349
2730.80716,0.94357
2728.87863,0.94378
2726.95009,0.94406
2725.02155,0.94415
2723.09302,0.94400
2721.16448,0.94376
2719.23594,0.94357
2717.30741,0.94356
2715.37887,0.94365
2713.45034,0.94375
2711.52180,0.94395
2709.59326,0.94423
2707.66473,0.94448
2705.73619,0.94468
2703.80766,0.94489
2701.87912,0.94516
2699.95058,0.94545
2698.02205,0.94564
2696.09351,0.94575
2694.16497,0.94583
2692.23644,0.94587
2690.30790,0.94591
2688.37937,0.94598
2686.45083,0.94607
2684.52229,0.94619
2682.59376,0.94636
2680.66522,0.94649
2678.73669,0.94648
2676.80815,0.94639
2674.87961,0.94633
2672.95108,0.94626
2671.02254,0.94616
2669.09401,0.94605
2667.16547,0.94598
2665.23693,0.94590
2663.30840,0.94580
2661.37986,0.94573
2659.45132,0.94570
2657.52279,0.94568
2655.59425,0.94564
2653.66572,0.94562
2651.73718,0.94574
2649.80864,0.94602
2647.88011,0.94633
2645.95157,0.94662
2644.02304,0.94683
2642.09450,0.94698
2640.16596,0.94712
2638.23743,0.94727
2636.30889,0.94738
2634.38035,0.94748
2632.45182,0.94761
2630.52328,0.94777
2628.59475,0.94792
2626.66621,0.94805
2624.73767,0.94813
2622.80914,0.94811
2620.88060,0.94803
2618.95207,0.94806
2617.02353,0.94823
2615.09499,0.94837
2613.16646,0.94840
2611.23792,0.94835
2609.30939,0.94831
2607.38085,0.94828
2605.45231,0.94816
2603.52378,0.94796
2601.59524,0.94780
2599.66670,0.94778
2597.73817,0.94784
2595.80963,0.94793
2593.88110,0.94801
2591.95256,0.94812
2590.02402,0.94836
2588.09549,0.94862
2586.16695,0.94877
2584.23842,0.94895
2582.30988,0.94931
2580.38134,0.94972
2578.45281,0.94998
2576.52427,0.95012
2574.59573,0.95020
2572.66720,0.95018
2570.73866,0.95008
2568.81013,0.94994
2566.88159,0.94973
2564.95305,0.94958
2563.02452,0.94963
2561.09598,0.94978
2559.16745,0.94994
2557.23891,0.95013
2555.31037,0.95037
2553.38184,0.95059
2551.45330,0.95066
2549.52476,0.95066
2547.59623,0.95077
2545.66769,0.95097
2543.73916,0.95111
2541.81062,0.95106
2539.88208,0.95087
2537.95355,0.95082
2536.02501,0.95096
2534.09648,0.95107
2532.16794,0.95103
2530.23940,0.95096
2528.31087,0.95103
2526.38233,0.95123
2524.45380,0.95145
2522.52526,0.95168
2520.59672,0.95199
2518.66819,0.95223
2516.73965,0.95232
2514.81111,0.95242
2512.88258,0.95265
2510.95404,0.95290
2509.02551,0.95308
2507.09697,0.95323
2505.16843,0.95334
2503.23990,0.95342
2501.31136,0.95354
2499.38283,0.95374
2497.45429,0.95391
2495.52575,0.95395
2493.59722,0.95392
2491.66868,0.95389
2489.74014,0.95389
2487.81161,0.95395
2485.88307,0.95409
2483.95454,0.95416
2482.02600,0.95411
2480.09746,0.95415
2478.16893,0.95430
2476.24039,0.95438
2474.31186,0.95436
2472.38332,0.95434
2470.45478,0.95442
2468.52625,0.95455
2466.59771,0.95461
2464.66918,0.95453
2462.74064,0.95441
2460.81210,0.95433
2458.88357,0.95428
2456.95503,0.95425
2455.02649,0.95430
2453.09796,0.95446
2451.16942,0.95459
2449.24089,0.95466
2447.31235,0.95477
2445.38381,0.95487
2443.45528,0.95488
2441.52674,0.95478
2439.59821,0.95472
2437.66967,0.95489
2435.74113,0.95518
2433.81260,0.95538
2431.88406,0.95553
2429.95552,0.95569
2428.02699,0.95574
2426.09845,0.95570
2424.16992,0.95566
2422.24138,0.95559
2420.31284,0.95546
2418.38431,0.95541
2416.45577,0.95549
2414.52724,0.95558
2412.59870,0.95559
2410.67016,0.95555
2408.74163,0.95554
2406.81309,0.95561
2404.88456,0.95565
2402.95602,0.95558
2401.02748,0.95550
2399.09895,0.95547
2397.17041,0.95544
2395.24187,0.95537
2393.31334,0.95539
2391.38480,0.95553
2389.45627,0.95566
2387.52773,0.95561
2385.59919,0.95543
2383.67066,0.95522
2381.74212,0.95508
2379.81359,0.95503
2377.88505,0.95493
2375.95651,0.95472
2374.02798,0.95451
2372.09944,0.95425
2370.17090,0.95364
2368.24237,0.95277
2366.31383,0.95179
2364.38530,0.95082
2362.45676,0.95025
2360.52822,0.94985
2358.59969,0.94961
2356.67115,0.95019
2354.74262,0.95120
2352.81408,0.95193
2350.88554,0.95245
2348.95701,0.95278
2347.02847,0.95274
2345.09994,0.95220
2343.17140,0.95158
2341.24286,0.95141
2339.31433,0.95158
2337.38579,0.95172
2335.45725,0.95173
2333.52872,0.95178
2331.60018,0.95205
2329.67165,0.95220
2327.74311,0.95167
2325.81457,0.95103
2323.88604,0.95128
2321.95750,0.95219
2320.02897,0.95292
2318.10043,0.95333
2316.17189,0.95350
2314.24336,0.95364
2312.31482,0.95389
2310.38628,0.95412
2308.45775,0.95428
2306.52921,0.95454
2304.60068,0.95488
2302.67214,0.95513
2300.74360,0.95522
2298.81507,0.95513
2296.88653,0.95496
2294.95800,0.95483
2293.02946,0.95470
2291.10092,0.95453
2289.17239,0.95446
2287.24385,0.95462
2285.31532,0.95497
2283.38678,0.95536
2281.45824,0.95577
2279.52971,0.95609
2277.60117,0.95627
2275.67263,0.95644
2273.74410,0.95666
2271.81556,0.95688
2269.88703,0.95714
2267.95849,0.95743
2266.02995,0.95756
2264.10142,0.95747
2262.17288,0.95741
2260.24435,0.95759
2258.31581,0.95785
2256.38727,0.95792
2254.45874,0.95784
2252.53020,0.95792
2250.60166,0.95816
2248.67313,0.95828
2246.74459,0.95830
2244.81606,0.95837
2242.88752,0.95853
2240.95898,0.95873
2239.03045,0.95891
2237.10191,0.95912
2235.17338,0.95934
2233.24484,0.95952
2231.31630,0.95959
2229.38777,0.95947
2227.45923,0.95935
2225.53070,0.95941
2223.60216,0.95972
2221.67362,0.96011
2219.74509,0.96041
2217.81655,0.96062
2215.88801,0.96084
2213.95948,0.96110
2212.03094,0.96137
2210.10241,0.96157
2208.17387,0.96168
2206.24533,0.96167
2204.31680,0.96150
2202.38826,0.96139
2200.45973,0.96159
2198.53119,0.96182
2196.60265,0.96171
2194.67412,0.96155
2192.74558,0.96155
2190.81704,0.96152
2188.88851,0.96150
2186.95997,0.96196
2185.03144,0.96288
2183.10290,0.96364
2181.17436,0.96405
2179.24583,0.96430
2177.31729,0.96444
2175.38876,0.96439
2173.46022,0.96422
2171.53168,0.96400
2169.60315,0.96379
2167.67461,0.96365
2165.74607,0.96343
2163.81754,0.96321
2161.88900,0.96375
2159.96047,0.96563
2158.03193,0.96767
2156.10339,0.96847
2154.17486,0.96823
2152.24632,0.96751
2150.31779,0.96681
2148.38925,0.96649
2146.46071,0.96625
2144.53218,0.96580
2142.60364,0.96545
2140.67511,0.96543
2138.74657,0.96566
2136.81803,0.96610
2134.88950,0.96655
2132.96096,0.96636
2131.03242,0.96565
2129.10389,0.96508
2127.17535,0.96471
2125.24682,0.96430
2123.31828,0.96391
2121.38974,0.96361
2119.46121,0.96336
2117.53267,0.96314
2115.60414,0.96308
2113.67560,0.96326
2111.74706,0.96347
2109.81853,0.96355
2107.88999,0.96363
2105.96145,0.96374
2104.03292,0.96381
2102.10438,0.96388
2100.17585,0.96392
2098.24731,0.96404
2096.31877,0.96443
2094.39024,0.96475
2092.46170,0.96466
2090.53317,0.96442
2088.60463,0.96431
2086.67609,0.96442
2084.74756,0.96464
2082.81902,0.96464
2080.89049,0.96430
2078.96195,0.96409
2077.03341,0.96427
2075.10488,0.96465
2073.17634,0.96505
2071.24780,0.96527
2069.31927,0.96538
2067.39073,0.96562
2065.46220,0.96579
2063.53366,0.96577
2061.60512,0.96582
2059.67659,0.96592
2057.74805,0.96599
2055.81952,0.96609
2053.89098,0.96602
2051.96244,0.96592
2050.03391,0.96632
2048.10537,0.96683
2046.17683,0.96693
2044.24830,0.96713
2042.31976,0.96761
2040.39123,0.96803
2038.46269,0.96822
2036.53415,0.96818
2034.60562,0.96828
2032.67708,0.96865
2030.74855,0.96900
2028.82001,0.96907
2026.89147,0.96897
2024.96294,0.96920
2023.03440,0.96968
2021.10587,0.96959
2019.17733,0.96891
2017.24879,0.96838
2015.32026,0.96838
2013.39172,0.96847
2011.46318,0.96836
2009.53465,0.96843
2007.60611,0.96875
2005.67758,0.96895
2003.74904,0.96896
2001.82050,0.96883
1999.89197,0.96860
1997.96343,0.96834
1996.03490,0.96791
1994.10636,0.96739
1992.17782,0.96701
1990.24929,0.96677
1988.32075,0.96651
1986.39221,0.96633
1984.46368,0.96616
1982.53514,0.96580
1980.60661,0.96589
1978.67807,0.96693
1976.74953,0.96790
1974.82100,0.96797
1972.89246,0.96771
1970.96393,0.96770
1969.03539,0.96782
1967.10685,0.96761
1965.17832,0.96723
1963.24978,0.96725
1961.32125,0.96748
1959.39271,0.96749
1957.46417,0.96727
1955.53564,0.96707
1953.60710,0.96692
1951.67856,0.96675
1949.75003,0.96672
1947.82149,0.96693
1945.89296,0.96708
1943.96442,0.96686
1942.03588,0.96641
1940.10735,0.96604
1938.17881,0.96573
1936.25028,0.96539
1934.32174,0.96503
1932.39320,0.96473
1930.46467,0.96465
1928.53613,0.96470
1926.60759,0.96470
1924.67906,0.96459
1922.75052,0.96434
1920.82199,0.96428
1918.89345,0.96443
1916.96491,0.96446
1915.03638,0.96453
1913.10784,0.96478
1911.17931,0.96503
1909.25077,0.96520
1907.32223,0.96541
1905.39370,0.96577
1903.46516,0.96619
1901.53663,0.96650
1899.60809,0.96665
1897.67955,0.96671
1895.75102,0.96673
1893.82248,0.96684
1891.89394,0.96715
1889.96541,0.96750
1888.03687,0.96763
1886.10834,0.96766
1884.17980,0.96768
1882.25126,0.96767
1880.32273,0.96767
1878.39419,0.96769
1876.46566,0.96778
1874.53712,0.96787
1872.60858,0.96790
1870.68005,0.96781
1868.75151,0.96757
1866.82297,0.96747
1864.89444,0.96751
1862.96590,0.96748
1861.03737,0.96739
1859.10883,0.96736
1857.18029,0.96740
1855.25176,0.96741
1853.32322,0.96745
1851.39469,0.96757
1849.46615,0.96769
1847.53761,0.96772
1845.60908,0.96766
1843.68054,0.96765
1841.75200,0.96772
1839.82347,0.96776
1837.89493,0.96772
1835.96640,0.96765
1834.03786,0.96764
1832.10932,0.96774
1830.18079,0.96783
1828.25225,0.96774
1826.32372,0.96760
1824.39518,0.96743
1822.46664,0.96722
1820.53811,0.96716
1818.60957,0.96721
1816.68104,0.96711
1814.75250,0.96678
1812.82396,0.96637
1810.89543,0.96595
1808.96689,0.96559
1807.03835,0.96530
1805.10982,0.96500
1803.18128,0.96470
1801.25275,0.96440
1799.32421,0.96418
1797.39567,0.96406
1795.46714,0.96394
1793.53860,0.96373
1791.61007,0.96333
1789.68153,0.96299
1787.75299,0.96278
1785.82446,0.96248
1783.89592,0.96206
1781.96738,0.96171
1780.03885,0.96147
1778.11031,0.96136
1776.18178,0.96142
1774.25324,0.96168
1772.32470,0.96202
1770.39617,0.96216
1768.46763,0.96216
1766.53910,0.96222
1764.61056,0.96233
1762.68202,0.96243
1760.75349,0.96243
1758.82495,0.96230
1756.89642,0.96194
1754.96788,0.96146
1753.03934,0.96101
1751.11081,0.96025
1749.18227,0.95890
1747.25373,0.95758
1745.32520,0.95652
1743.39666,0.95545
1741.46813,0.95430
1739.53959,0.95321
1737.61105,0.95257
1735.68252,0.95236
1733.75398,0.95216
1731.82545,0.95188
1729.89691,0.95161
1727.96837,0.95111
1726.03984,0.95016
1724.11130,0.94875
1722.18276,0.94747
1720.25423,0.94686
1718.32569,0.94636
1716.39716,0.94490
1714.46862,0.94323
1712.54008,0.94198
1710.61155,0.94083
1708.68301,0.93978
1706.75448,0.93887
1704.82594,0.93842
1702.89740,0.93879
1700.96887,0.94024
1699.04033,0.94260
1697.11180,0.94530
1695.18326,0.94850
1693.25472,0.95091
1691.32619,0.95278
1689.39765,0.95468
1687.46911,0.95625
1685.54058,0.95751
1683.61204,0.95865
1681.68351,0.95908
1679.75497,0.95923
1677.82643,0.95949
1675.89790,0.95995
1673.96936,0.96057
1672.04083,0.96107
1670.11229,0.96157
1668.18375,0.96225
1666.25522,0.96274
1664.32668,0.96316
1662.39814,0.96360
1660.46961,0.96385
1658.54107,0.96386
1656.61254,0.96373
1654.68400,0.96349
1652.75546,0.96278
1650.82693,0.96233
1648.89839,0.96212
1646.96986,0.96140
1645.04132,0.96037
1643.11278,0.95967
1641.18425,0.95909
1639.25571,0.95848
1637.32718,0.95767
1635.39864,0.95576
1633.47010,0.95326
1631.54157,0.95042
1629.61303,0.94593
1627.68449,0.94021
1625.75596,0.93619
1623.82742,0.93319
1621.89889,0.92779
1619.97035,0.92090
1618.04181,0.91018
1616.11328,0.89383
1614.18474,0.88551
1612.25621,0.88527
1610.32767,0.88634
1608.39913,0.88413
1606.47060,0.87662
1604.54206,0.86548
1602.61352,0.85089
1600.68499,0.83097
1598.75645,0.80532
1596.82792,0.77585
1594.89938,0.74833
1592.97084,0.73264
1591.04231,0.73113
1589.11377,0.73717
1587.18524,0.74359
1585.25670,0.74819
1583.32816,0.75272
1581.39963,0.75890
1579.47109,0.76667
1577.54256,0.77614
1575.61402,0.78651
1573.68548,0.79205
1571.75695,0.79478
1569.82841,0.79722
1567.89987,0.79849
1565.97134,0.79828
1564.04280,0.79779
1562.11427,0.79845
1560.18573,0.80308
1558.25719,0.82013
1556.32866,0.83413
1554.40012,0.84276
1552.47159,0.85051
1550.54305,0.85762
1548.61451,0.86461
1546.68598,0.87062
1544.75744,0.87679
1542.82890,0.88425
1540.90037,0.89332
1538.97183,0.90144
1537.04330,0.90478
1535.11476,0.90752
1533.18622,0.91161
1531.25769,0.91528
1529.32915,0.91768
1527.40062,0.92004
1525.47208,0.92231
1523.54354,0.92292
1521.61501,0.91744
1519.68647,0.90641
1517.75793,0.89458
1515.82940,0.88606
1513.90086,0.88809
1511.97233,0.89672
1510.04379,0.90626
1508.11525,0.91619
1506.18672,0.92707
1504.25818,0.93034
1502.32965,0.93077
1500.40111,0.92983
1498.47257,0.92574
1496.54404,0.91866
1494.61550,0.91522
1492.68697,0.91660
1490.75843,0.92145
1488.82989,0.92861
1486.90136,0.93317
1484.97282,0.93539
1483.04428,0.93707
1481.11575,0.93855
1479.18721,0.93937
1477.25868,0.93891
1475.33014,0.93647
1473.40160,0.92834
1471.47307,0.91485
1469.54453,0.90600
1467.61600,0.90082
1465.68746,0.89705
1463.75892,0.89519
1461.83039,0.89510
1459.90185,0.89568
1457.97331,0.89603
1456.04478,0.89445
1454.11624,0.89108
1452.18771,0.88555
1450.25917,0.87742
1448.33063,0.86922
1446.40210,0.86766
1444.47356,0.87411
1442.54503,0.88275
1440.61649,0.88872
1438.68795,0.89029
1436.75942,0.88602
1434.83088,0.87875
1432.90235,0.87296
1430.97381,0.86227
1429.04527,0.83900
1427.11674,0.80983
1425.18820,0.78712
1423.25966,0.78171
1421.33113,0.79330
1419.40259,0.80950
1417.47406,0.81895
1415.54552,0.82313
1413.61698,0.83078
1411.68845,0.84358
1409.75991,0.85700
1407.83138,0.86600
1405.90284,0.86988
1403.97430,0.86918
1402.04577,0.86593
1400.11723,0.86095
1398.18869,0.85389
1396.26016,0.84507
1394.33162,0.83383
1392.40309,0.82302
1390.47455,0.81380
1388.54601,0.80255
1386.61748,0.78752
1384.68894,0.77350
1382.76041,0.76117
1380.83187,0.74794
1378.90333,0.73452
1376.97480,0.72269
1375.04626,0.71183
1373.11773,0.70357
1371.18919,0.70195
1369.26065,0.70522
1367.33212,0.70931
1365.40358,0.71002
1363.47504,0.70385
1361.54651,0.69268
1359.61797,0.68714
1357.68944,0.69202
1355.76090,0.70854
1353.83236,0.73523
1351.90383,0.76474
1349.97529,0.79060
1348.04676,0.80865
1346.11822,0.81658
1344.18968,0.81626
1342.26115,0.81216
1340.33261,0.80903
1338.40407,0.81056
1336.47554,0.81405
1334.54700,0.81474
1332.61847,0.81246
1330.68993,0.81007
1328.76139,0.81079
1326.83286,0.81603
1324.90432,0.82504
1322.97579,0.83545
1321.04725,0.84501
1319.11871,0.85353
1317.19018,0.86208
1315.26164,0.87086
1313.33311,0.87891
1311.40457,0.88413
1309.47603,0.88413
1307.54750,0.87636
1305.61896,0.85751
1303.69042,0.82559
1301.76189,0.78364
1299.83335,0.74174
1297.90482,0.71272
1295.97628,0.70570
1294.04774,0.72146
1292.11921,0.75233
1290.19067,0.78780
1288.26214,0.81966
1286.33360,0.84315
1284.40506,0.85700
1282.47653,0.86200
1280.54799,0.85784
1278.61945,0.84339
1276.69092,0.82083
1274.76238,0.79665
1272.83385,0.77568
1270.90531,0.75643
1268.97677,0.73425
1267.04824,0.70867
1265.11970,0.68751
1263.19117,0.68287
1261.26263,0.70111
1259.33409,0.73588
1257.40556,0.77282
1255.47702,0.80299
1253.54849,0.82521
1251.61995,0.84030
1249.69141,0.84828
1247.76288,0.84887
1245.83434,0.84382
1243.90580,0.83789
1241.97727,0.83657
1240.04873,0.84169
1238.12020,0.85010
1236.19166,0.85710
1234.26312,0.86054
1232.33459,0.86163
1230.40605,0.86289
1228.47752,0.86553
1226.54898,0.86835
1224.62044,0.86927
1222.69191,0.86930
1220.76337,0.87292
1218.83483,0.88172
1216.90630,0.89125
1214.97776,0.89676
1213.04923,0.89764
1211.12069,0.89540
1209.19215,0.89191
1207.26362,0.88980
1205.33508,0.89129
1203.40655,0.89531
1201.47801,0.89810
1199.54947,0.89702
1197.62094,0.89186
1195.69240,0.88301
1193.76387,0.87037
1191.83533,0.85358
1189.90679,0.83241
1187.97826,0.80689
1186.04972,0.77782
1184.12118,0.74686
1182.19265,0.71552
1180.26411,0.68517
1178.33558,0.65742
1176.40704,0.63343
1174.47850,0.61430
1172.54997,0.60223
1170.62143,0.59892
1168.69290,0.60398
1166.76436,0.61545
1164.83582,0.63043
1162.90729,0.64658
1160.97875,0.66327
1159.05021,0.68000
1157.12168,0.69403
1155.19314,0.70057
1153.26461,0.69671
1151.33607,0.68508
1149.40753,0.67159
1147.47900,0.66016
1145.55046,0.65111
1143.62193,0.64249
1141.69339,0.63186
1139.76485,0.61856
1137.83632,0.60426
1135.90778,0.59064
1133.97924,0.57830
1132.05071,0.56774
1130.12217,0.55991
1128.19364,0.55579
1126.26510,0.55553
1124.33656,0.55859
1122.40803,0.56462
1120.47949,0.57397
1118.55096,0.58695
1116.62242,0.60236
1114.69388,0.61762
1112.76535,0.63114
1110.83681,0.64391
1108.90828,0.65674
1106.97974,0.66888
1105.05120,0.68077
1103.12267,0.69338
1101.19413,0.70686
1099.26559,0.72168
1097.33706,0.73729
1095.40852,0.75115
1093.47999,0.76190
1091.55145,0.77154
1089.62291,0.78197
1087.69438,0.79123
1085.76584,0.79609
1083.83731,0.79722
1081.90877,0.79910
1079.98023,0.80526
1078.05170,0.81520
1076.12316,0.82607
1074.19462,0.83579
1072.26609,0.84384
1070.33755,0.85039
1068.40902,0.85545
1066.48048,0.85847
1064.55194,0.85901
1062.62341,0.85769
1060.69487,0.85681
1058.76634,0.85869
1056.83780,0.86289
1054.90926,0.86708
1052.98073,0.87017
1051.05219,0.87274
1049.12366,0.87529
1047.19512,0.87761
1045.26658,0.87916
1043.33805,0.87876
1041.40951,0.87427
1039.48097,0.86341
1037.55244,0.84697
1035.62390,0.83114
1033.69537,0.82412
1031.76683,0.82853
1029.83829,0.83906
1027.90976,0.84803
1025.98122,0.85106
1024.05269,0.84760
1022.12415,0.83876
1020.19561,0.82626
1018.26708,0.81276
1016.33854,0.80147
1014.41000,0.79465
1012.48147,0.79213
1010.55293,0.79159
1008.62440,0.79088
1006.69586,0.78947
1004.76732,0.78743
1002.83879,0.78457
1000.91025,0.78276
998.98172,0.78734
997.05318,0.80144
995.12464,0.82044
993.19611,0.83706
991.26757,0.84874
989.33904,0.85673
987.41050,0.86237
985.48196,0.86642
983.55343,0.86919
981.62489,0.87075
979.69635,0.87105
977.76782,0.86994
975.83928,0.86756
973.91075,0.86446
971.98221,0.86114
970.05367,0.85791
968.12514,0.85497
966.19660,0.85223
964.26807,0.84958
962.33953,0.84690
960.41099,0.84340
958.48246,0.83762
956.55392,0.82830
954.62538,0.81481
952.69685,0.79799
950.76831,0.78147
948.83978,0.76977
946.91124,0.76518
944.98270,0.76855
943.05417,0.78059
941.12563,0.79985
939.19710,0.82183
937.26856,0.84161
935.34002,0.85659
933.41149,0.86685
931.48295,0.87375
929.55442,0.87852
927.62588,0.88188
925.69734,0.88428
923.76881,0.88610
921.84027,0.88747
919.91173,0.88826
917.98320,0.88822
916.05466,0.88690
914.12613,0.88394
912.19759,0.88022
910.26905,0.87801
908.34052,0.87884
906.41198,0.88189
904.48345,0.88537
902.55491,0.88751
900.62637,0.88574
898.69784,0.87710
896.76930,0.86120
894.84076,0.84198
892.91223,0.82448
890.98369,0.81174
889.05516,0.80564
887.12662,0.80746
885.19808,0.81656
883.26955,0.83013
881.34101,0.84411
879.41248,0.85426
877.48394,0.85725
875.55540,0.85421
873.62687,0.85275
871.69833,0.85957
869.76980,0.87254
867.84126,0.88526
865.91272,0.89446
863.98419,0.89980
862.05565,0.90050
860.12711,0.89397
858.19858,0.87866
856.27004,0.85992
854.34151,0.84731
852.41297,0.84064
850.48443,0.82796
848.55590,0.79986
846.62736,0.75759
844.69883,0.71336
842.77029,0.69004
840.84175,0.70610
838.91322,0.75381
836.98468,0.80596
835.05614,0.84340
833.12761,0.86374
831.19907,0.87174
829.27054,0.87435
827.34200,0.87840
825.41346,0.88494
823.48493,0.89067
821.55639,0.89441
819.62786,0.89728
817.69932,0.89980
815.77078,0.90211
813.84225,0.90435
811.91371,0.90630
809.98517,0.90755
808.05664,0.90799
806.12810,0.90818
804.19957,0.90887
802.27103,0.91014
800.34249,0.91158
798.41396,0.91293
796.48542,0.91372
794.55689,0.91270
792.62835,0.90790
790.69981,0.89903
788.77128,0.89142
786.84274,0.89225
784.91421,0.90091
782.98567,0.90993
781.05713,0.91430
779.12860,0.91412
777.20006,0.91077
775.27152,0.90500
773.34299,0.89700
771.41445,0.88600
769.48592,0.86943
767.55738,0.84160
765.62884,0.79941
763.70031,0.75562
761.77177,0.73805
759.84324,0.76207
757.91470,0.81065
755.98616,0.85359
754.05763,0.87383
752.12909,0.86709
750.20055,0.83622
748.27202,0.79849
746.34348,0.77915
744.41495,0.78666
742.48641,0.80451
740.55787,0.81176
738.62934,0.80706
736.70080,0.80522
734.77227,0.81595
732.84373,0.83518
730.91519,0.84936
728.98666,0.84433
727.05812,0.81616
725.12959,0.76829
723.20105,0.70557
721.27251,0.65804
719.34398,0.67273
717.41544,0.73814
715.48690,0.79924
713.55837,0.83510
711.62983,0.85401
709.70130,0.86488
707.77276,0.87182
705.84422,0.87567
703.91569,0.87370
701.98715,0.86201
700.05862,0.84595
698.13008,0.84057
696.20154,0.85202
694.27301,0.86932
692.34447,0.88163
690.41593,0.88828
688.48740,0.89227
686.55886,0.89493
684.63033,0.89422
682.70179,0.88126
680.77325,0.84448
678.84472,0.79811
676.91618,0.78322
674.98765,0.80773
673.05911,0.83553
671.13057,0.84731
669.20204,0.85566
667.27350,0.87117
665.34497,0.88029
663.41643,0.88243
661.48789,0.88244
659.55936,0.88354
657.63082,0.88679
655.70228,0.88920
653.77375,0.88594
651.84521,0.87285
649.91668,0.85386
647.98814,0.84433
646.05960,0.85229
644.13107,0.86719
642.20253,0.87748
640.27400,0.88171
638.34546,0.88328
636.41692,0.88542
634.48839,0.88928
632.55985,0.89357
630.63131,0.89686
628.70278,0.89911
626.77424,0.90062
624.84571,0.90146
622.91717,0.90175
620.98863,0.90172
619.06010,0.90154
617.13156,0.90116
615.20303,0.90028
613.27449,0.89821
611.34595,0.89428
609.41742,0.88813
607.48888,0.88059
605.56035,0.87441
603.63181,0.87262
601.70327,0.87604
599.77474,0.88238
597.84620,0.88819
595.91766,0.89222
593.98913,0.89511
592.06059,0.89766
590.13206,0.90002
588.20352,0.90187
586.27498,0.90303
584.34645,0.90348
582.41791,0.90343
580.48938,0.90297
578.56084,0.90209
576.63230,0.90129
574.70377,0.90111
572.77523,0.90160
570.84669,0.90256
568.91816,0.90361
566.98962,0.90436
565.06109,0.90463
563.13255,0.90404
561.20401,0.90247
559.27548,0.90081
557.34694,0.89947
555.41841,0.89777
553.48987,0.89583
551.56133,0.89385
549.63280,0.89009
547.70426,0.88279
545.77573,0.87330
543.84719,0.86699
541.91865,0.86804
539.99012,0.87442
538.06158,0.88045
536.13304,0.88189
534.20451,0.87806
532.27597,0.87148
530.34744,0.86590
528.41890,0.86454
526.49036,0.86956
524.56183,0.87928
522.63329,0.88796
520.70476,0.89367
518.77622,0.89747
516.84768,0.89960
514.91915,0.89996
512.99061,0.89896
511.06207,0.89725
509.13354,0.89557
507.20500,0.89355
505.27647,0.89103
503.34793,0.88997
501.41939,0.89226
499.49086,0.89649
497.56232,0.89953
495.63379,0.89956
493.70525,0.89669
491.77671,0.89333
489.84818,0.89229
487.91964,0.89208
485.99110,0.88774
484.06257,0.87438
482.13403,0.84805
480.20550,0.80892
478.27696,0.76929
476.34842,0.75138
474.41989,0.76540
472.49135,0.80312
470.56282,0.83920
468.63428,0.85990
466.70574,0.87233
464.77721,0.88086
462.84867,0.88674
460.92014,0.89046
458.99160,0.89232
457.06306,0.89276
455.13453,0.89263
453.20599,0.89193
451.27745,0.88936
449.34892,0.88441
447.42038,0.87644
445.49185,0.86753
443.56331,0.86473
441.63477,0.87214
439.70624,0.88295
437.77770,0.88962
435.84917,0.88971
433.92063,0.88096
431.99209,0.86324
430.06356,0.84384
428.13502,0.83678
426.20648,0.84640
424.27795,0.86234
422.34941,0.87107
420.42088,0.86756
418.49234,0.85230
416.56380,0.84441
414.63527,0.84655
412.70673,0.85275
410.77820,0.86305
408.84966,0.87551
406.92112,0.88574
404.99259,0.89145
403.06405,0.89338
401.13552,0.89147
399.20698,0.88499
