3997.85540,0.95019
3995.92686,0.95068
3993.99833,0.95086
3992.06979,0.95092
3990.14125,0.95087
3988.21272,0.95031
3986.28418,0.94984
3984.35565,0.95008
3982.42711,0.95059
3980.49857,0.95081
3978.57004,0.95111
3976.64150,0.95212
3974.71297,0.95314
3972.78443,0.95312
3970.85589,0.95237
3968.92736,0.95146
3966.99882,0.95073
3965.07029,0.95101
3963.14175,0.95242
3961.21321,0.95349
3959.28468,0.95353
3957.35614,0.95330
3955.42760,0.95326
3953.49907,0.95415
3951.57053,0.95647
3949.64200,0.95870
3947.71346,0.95837
3945.78492,0.95732
3943.85639,0.95802
3941.92785,0.95776
3939.99932,0.95526
3938.07078,0.95346
3936.14224,0.95406
3934.21371,0.95739
3932.28517,0.96150
3930.35663,0.96193
3928.42810,0.95962
3926.49956,0.95977
3924.57103,0.96169
3922.64249,0.96096
3920.71395,0.95975
3918.78542,0.96074
3916.85688,0.96047
3914.92835,0.95683
3912.99981,0.95338
3911.07127,0.95227
3909.14274,0.95398
3907.21420,0.95996
3905.28566,0.96968
3903.35713,0.97633
3901.42859,0.97552
3899.50006,0.97046
3897.57152,0.96388
3895.64298,0.96068
3893.71445,0.96327
3891.78591,0.96620
3889.85738,0.96338
3887.92884,0.96172
3886.00030,0.96511
3884.07177,0.96847
3882.14323,0.96940
3880.21470,0.96717
3878.28616,0.96222
3876.35762,0.96182
3874.42909,0.96739
3872.50055,0.97392
3870.57201,0.97687
3868.64348,0.97428
3866.71494,0.97269
3864.78641,0.97526
3862.85787,0.97349
3860.92933,0.96699
3859.00080,0.96520
3857.07226,0.97047
3855.14373,0.98156
3853.21519,0.98986
3851.28665,0.98032
3849.35812,0.96812
3847.42958,0.96232
3845.50104,0.96357
3843.57251,0.96990
3841.64397,0.97830
3839.71544,0.98600
3837.78690,0.98638
3835.85836,0.97918
3833.92983,0.97277
3832.00129,0.96848
3830.07276,0.96607
3828.14422,0.96663
3826.21568,0.96885
3824.28715,0.97241
3822.35861,0.98005
3820.43008,0.98535
3818.50154,0.98161
3816.57300,0.97571
3814.64447,0.96730
3812.71593,0.95998
3810.78739,0.95832
3808.85886,0.96251
3806.93032,0.96864
3805.00179,0.97257
3803.07325,0.97820
3801.14471,0.98211
3799.21618,0.97746
3797.28764,0.97103
3795.35911,0.96392
3793.43057,0.95763
3791.50203,0.95497
3789.57350,0.95540
3787.64496,0.95823
3785.71642,0.96183
3783.78789,0.96266
3781.85935,0.96265
3779.93082,0.96419
3778.00228,0.96250
3776.07374,0.95811
3774.14521,0.95717
3772.21667,0.96134
3770.28814,0.96697
3768.35960,0.96840
3766.43106,0.96695
3764.50253,0.96511
3762.57399,0.96486
3760.64546,0.96895
3758.71692,0.97368
3756.78838,0.97431
3754.85985,0.97676
3752.93131,0.98706
3751.00277,0.99988
3749.07424,0.99870
3747.14570,0.99247
3745.21717,0.98801
3743.28863,0.98193
3741.36009,0.97777
3739.43156,0.97849
3737.50302,0.98477
3735.57449,0.99205
3733.64595,0.98723
3731.71741,0.97399
3729.78888,0.96536
3727.86034,0.96446
3725.93180,0.96820
3724.00327,0.97061
3722.07473,0.96914
3720.14620,0.96555
3718.21766,0.96256
3716.28912,0.96278
3714.36059,0.96844
3712.43205,0.97871
3710.50352,0.98053
3708.57498,0.96960
3706.64644,0.96088
3704.71791,0.95890
3702.78937,0.96089
3700.86084,0.96068
3698.93230,0.95778
3697.00376,0.95698
3695.07523,0.95935
3693.14669,0.96583
3691.21815,0.97719
3689.28962,0.98288
3687.36108,0.97358
3685.43255,0.96401
3683.50401,0.96044
3681.57547,0.96239
3679.64694,0.96927
3677.71840,0.97989
3675.78987,0.98837
3673.86133,0.98534
3671.93279,0.98255
3670.00426,0.98168
3668.07572,0.97232
3666.14718,0.96218
3664.21865,0.95772
3662.29011,0.95740
3660.36158,0.95931
3658.43304,0.96299
3656.50450,0.96645
3654.57597,0.96772
3652.64743,0.97275
3650.71890,0.98746
3648.79036,0.99819
3646.86182,0.98479
3644.93329,0.97030
3643.00475,0.96343
3641.07622,0.96071
3639.14768,0.95927
3637.21914,0.95874
3635.29061,0.95972
3633.36207,0.96276
3631.43353,0.96892
3629.50500,0.97655
3627.57646,0.97338
3625.64793,0.96380
3623.71939,0.96028
3621.79085,0.96454
3619.86232,0.97283
3617.93378,0.97615
3616.00525,0.97570
3614.07671,0.97605
3612.14817,0.97410
3610.21964,0.97120
3608.29110,0.96882
3606.36256,0.96386
3604.43403,0.95988
3602.50549,0.96101
3600.57696,0.96453
3598.64842,0.96588
3596.71988,0.96569
3594.79135,0.96459
3592.86281,0.96186
3590.93428,0.96175
3589.00574,0.96772
3587.07720,0.97208
3585.14867,0.96668
3583.22013,0.96070
3581.29160,0.95869
3579.36306,0.95869
3577.43452,0.95878
3575.50599,0.95832
3573.57745,0.95754
3571.64891,0.95868
3569.72038,0.96512
3567.79184,0.97571
3565.86331,0.97789
3563.93477,0.96998
3562.00623,0.96313
3560.07770,0.95914
3558.14916,0.95645
3556.22063,0.95587
3554.29209,0.95819
3552.36355,0.96048
3550.43502,0.96042
3548.50648,0.96157
3546.57794,0.96481
3544.64941,0.96454
3542.72087,0.95962
3540.79234,0.95529
3538.86380,0.95448
3536.93526,0.95540
3535.00673,0.95502
3533.07819,0.95456
3531.14966,0.95671
3529.22112,0.96040
3527.29258,0.96240
3525.36405,0.96242
3523.43551,0.96108
3521.50697,0.95787
3519.57844,0.95457
3517.64990,0.95280
3515.72137,0.95217
3513.79283,0.95282
3511.86429,0.95483
3509.93576,0.95633
3508.00722,0.95587
3506.07869,0.95621
3504.15015,0.95872
3502.22161,0.95903
3500.29308,0.95589
3498.36454,0.95360
3496.43601,0.95307
3494.50747,0.95233
3492.57893,0.95143
3490.65040,0.95173
3488.72186,0.95277
3486.79332,0.95309
3484.86479,0.95321
3482.93625,0.95416
3481.00772,0.95422
3479.07918,0.95252
3477.15064,0.95134
3475.22211,0.95130
3473.29357,0.95108
3471.36504,0.95060
3469.43650,0.95062
3467.50796,0.95096
3465.57943,0.95126
3463.65089,0.95171
3461.72235,0.95185
3459.79382,0.95110
3457.86528,0.95018
3455.93675,0.94967
3454.00821,0.94939
3452.07967,0.94947
3450.15114,0.95080
3448.22260,0.95314
3446.29407,0.95397
3444.36553,0.95284
3442.43699,0.95163
3440.50846,0.95064
3438.57992,0.94988
3436.65139,0.94960
3434.72285,0.94958
3432.79431,0.94970
3430.86578,0.94973
3428.93724,0.94951
3427.00870,0.94922
3425.08017,0.94945
3423.15163,0.95070
3421.22310,0.95187
3419.29456,0.95126
3417.36602,0.94962
3415.43749,0.94871
3413.50895,0.94857
3411.58042,0.94855
3409.65188,0.94847
3407.72334,0.94836
3405.79481,0.94838
3403.86627,0.94858
3401.93773,0.94875
3400.00920,0.94900
3398.08066,0.94941
3396.15213,0.94971
3394.22359,0.94996
3392.29505,0.94980
3390.36652,0.94884
3388.43798,0.94818
3386.50945,0.94841
3384.58091,0.94863
3382.65237,0.94831
3380.72384,0.94797
3378.79530,0.94793
3376.86677,0.94790
3374.93823,0.94780
3373.00969,0.94774
3371.08116,0.94785
3369.15262,0.94831
3367.22408,0.94895
3365.29555,0.94922
3363.36701,0.94905
3361.43848,0.94877
3359.50994,0.94843
3357.58140,0.94820
3355.65287,0.94809
3353.72433,0.94777
3351.79580,0.94737
3349.86726,0.94717
3347.93872,0.94719
3346.01019,0.94729
3344.08165,0.94736
3342.15311,0.94742
3340.22458,0.94756
3338.29604,0.94795
3336.36751,0.94829
3334.43897,0.94807
3332.51043,0.94752
3330.58190,0.94734
3328.65336,0.94761
3326.72483,0.94786
3324.79629,0.94778
3322.86775,0.94741
3320.93922,0.94710
3319.01068,0.94710
3317.08215,0.94735
3315.15361,0.94773
3313.22507,0.94817
3311.29654,0.94856
3309.36800,0.94867
3307.43946,0.94822
3305.51093,0.94756
3303.58239,0.94726
3301.65386,0.94730
3299.72532,0.94751
3297.79678,0.94773
3295.86825,0.94793
3293.93971,0.94823
3292.01118,0.94844
3290.08264,0.94825
3288.15410,0.94790
3286.22557,0.94768
3284.29703,0.94767
3282.36849,0.94772
3280.43996,0.94778
3278.51142,0.94806
3276.58289,0.94858
3274.65435,0.94888
3272.72581,0.94852
3270.79728,0.94775
3268.86874,0.94721
3266.94021,0.94709
3265.01167,0.94708
3263.08313,0.94692
3261.15460,0.94681
3259.22606,0.94698
3257.29753,0.94740
3255.36899,0.94776
3253.44045,0.94762
3251.51192,0.94711
3249.58338,0.94698
3247.65484,0.94756
3245.72631,0.94821
3243.79777,0.94809
3241.86924,0.94753
3239.94070,0.94724
3238.01216,0.94725
3236.08363,0.94736
3234.15509,0.94749
3232.22656,0.94759
3230.29802,0.94756
3228.36948,0.94733
3226.44095,0.94695
3224.51241,0.94672
3222.58387,0.94695
3220.65534,0.94740
3218.72680,0.94748
3216.79827,0.94739
3214.86973,0.94751
3212.94119,0.94749
3211.01266,0.94726
3209.08412,0.94701
3207.15559,0.94671
3205.22705,0.94655
3203.29851,0.94665
3201.36998,0.94693
3199.44144,0.94735
3197.51290,0.94751
3195.58437,0.94711
3193.65583,0.94663
3191.72730,0.94648
3189.79876,0.94647
3187.87022,0.94654
3185.94169,0.94658
3184.01315,0.94640
3182.08462,0.94631
3180.15608,0.94675
3178.22754,0.94720
3176.29901,0.94699
3174.37047,0.94653
3172.44194,0.94643
3170.51340,0.94663
3168.58486,0.94677
3166.65633,0.94673
3164.72779,0.94669
3162.79925,0.94667
3160.87072,0.94664
3158.94218,0.94673
3157.01365,0.94688
3155.08511,0.94691
3153.15657,0.94673
3151.22804,0.94656
3149.29950,0.94648
3147.37097,0.94641
3145.44243,0.94633
3143.51389,0.94619
3141.58536,0.94593
3139.65682,0.94558
3137.72828,0.94521
3135.79975,0.94484
3133.87121,0.94413
3131.94268,0.94243
3130.01414,0.94026
3128.08560,0.93887
3126.15707,0.93829
3124.22853,0.93752
3122.30000,0.93579
3120.37146,0.93380
3118.44292,0.93319
3116.51439,0.93422
3114.58585,0.93556
3112.65732,0.93655
3110.72878,0.93759
3108.80024,0.93890
3106.87171,0.94019
3104.94317,0.94129
3103.01463,0.94236
3101.08610,0.94301
3099.15756,0.94294
3097.22903,0.94266
3095.30049,0.94232
3093.37195,0.94161
3091.44342,0.94076
3089.51488,0.93997
3087.58635,0.93912
3085.65781,0.93843
3083.72927,0.93839
3081.80074,0.93896
3079.87220,0.93954
3077.94366,0.93975
3076.01513,0.93982
3074.08659,0.94005
3072.15806,0.94039
3070.22952,0.94067
3068.30098,0.94098
3066.37245,0.94121
3064.44391,0.94084
3062.51538,0.93987
3060.58684,0.93905
3058.65830,0.93895
3056.72977,0.93923
3054.80123,0.93927
3052.87270,0.93923
3050.94416,0.93954
3049.01562,0.93985
3047.08709,0.93970
3045.15855,0.93933
3043.23001,0.93910
3041.30148,0.93889
3039.37294,0.93855
3037.44441,0.93813
3035.51587,0.93758
3033.58733,0.93652
3031.65880,0.93430
3029.73026,0.93052
3027.80173,0.92562
3025.87319,0.91983
3023.94465,0.91343
3022.01612,0.90818
3020.08758,0.90540
3018.15904,0.90379
3016.23051,0.90111
3014.30197,0.89647
3012.37344,0.89070
3010.44490,0.88646
3008.51636,0.88646
3006.58783,0.89017
3004.65929,0.89407
3002.73076,0.89556
3000.80222,0.89476
2998.87368,0.89315
2996.94515,0.89196
2995.01661,0.89165
2993.08808,0.89200
2991.15954,0.89263
2989.23100,0.89324
2987.30247,0.89339
2985.37393,0.89276
2983.44539,0.89131
2981.51686,0.88889
2979.58832,0.88521
2977.65979,0.88022
2975.73125,0.87416
2973.80271,0.86718
2971.87418,0.85949
2969.94564,0.85163
2968.01711,0.84406
2966.08857,0.83701
2964.16003,0.83076
2962.23150,0.82575
2960.30296,0.82227
2958.37442,0.82032
2956.44589,0.81965
2954.51735,0.81998
2952.58882,0.82112
2950.66028,0.82295
2948.73174,0.82509
2946.80321,0.82673
2944.87467,0.82695
2942.94614,0.82526
2941.01760,0.82152
2939.08906,0.81566
2937.16053,0.80769
2935.23199,0.79758
2933.30346,0.78534
2931.37492,0.77237
2929.44638,0.76144
2927.51785,0.75441
2925.58931,0.75093
2923.66077,0.75002
2921.73224,0.75140
2919.80370,0.75496
2917.87517,0.76015
2915.94663,0.76624
2914.01809,0.77257
2912.08956,0.77866
2910.16102,0.78412
2908.23249,0.78897
2906.30395,0.79345
2904.37541,0.79773
2902.44688,0.80192
2900.51834,0.80621
2898.58980,0.81070
2896.66127,0.81544
2894.73273,0.82047
2892.80420,0.82568
2890.87566,0.83083
2888.94712,0.83570
2887.01859,0.84001
2885.09005,0.84348
2883.16152,0.84581
2881.23298,0.84674
2879.30444,0.84608
2877.37591,0.84394
2875.44737,0.84085
2873.51883,0.83765
2871.59030,0.83528
2869.66176,0.83431
2867.73323,0.83455
2865.80469,0.83519
2863.87615,0.83529
2861.94762,0.83425
2860.01908,0.83195
2858.09055,0.82887
2856.16201,0.82614
2854.23347,0.82536
2852.30494,0.82782
2850.37640,0.83381
2848.44787,0.84265
2846.51933,0.85312
2844.59079,0.86382
2842.66226,0.87372
2840.73372,0.88239
2838.80518,0.88978
2836.87665,0.89598
2834.94811,0.90115
2833.01958,0.90548
2831.09104,0.90913
2829.16250,0.91222
2827.23397,0.91482
2825.30543,0.91705
2823.37690,0.91894
2821.44836,0.92049
2819.51982,0.92172
2817.59129,0.92266
2815.66275,0.92345
2813.73421,0.92430
2811.80568,0.92525
2809.87714,0.92616
2807.94861,0.92691
2806.02007,0.92753
2804.09153,0.92817
2802.16300,0.92885
2800.23446,0.92951
2798.30593,0.93011
2796.37739,0.93066
2794.44885,0.93123
2792.52032,0.93183
2790.59178,0.93241
2788.66325,0.93281
2786.73471,0.93301
2784.80617,0.93321
2782.87764,0.93359
2780.94910,0.93416
2779.02056,0.93483
2777.09203,0.93557
2775.16349,0.93629
2773.23496,0.93680
2771.30642,0.93700
2769.37788,0.93708
2767.44935,0.93719
2765.52081,0.93734
2763.59228,0.93756
2761.66374,0.93784
2759.73520,0.93811
2757.80667,0.93830
2755.87813,0.93832
2753.94959,0.93820
2752.02106,0.93816
2750.09252,0.93828
2748.16399,0.93832
2746.23545,0.93809
2744.30691,0.93776
2742.37838,0.93760
2740.44984,0.93771
2738.52131,0.93799
2736.59277,0.93816
2734.66423,0.93806
2732.73570,0.93786
2730.80716,0.93771
2728.87863,0.93777
2726.95009,0.93802
2725.02155,0.93814
2723.09302,0.93801
2721.16448,0.93778
2719.23594,0.93755
2717.30741,0.93737
2715.37887,0.93723
2713.45034,0.93716
2711.52180,0.93732
2709.59326,0.93777
2707.66473,0.93836
2705.73619,0.93893
2703.80766,0.93944
2701.87912,0.93996
2699.95058,0.94045
2698.02205,0.94080
2696.09351,0.94096
2694.16497,0.94106
2692.23644,0.94120
2690.30790,0.94134
2688.37937,0.94144
2686.45083,0.94145
2684.52229,0.94147
2682.59376,0.94160
2680.66522,0.94184
2678.73669,0.94195
2676.80815,0.94194
2674.87961,0.94200
2672.95108,0.94215
2671.02254,0.94226
2669.09401,0.94237
2667.16547,0.94248
2665.23693,0.94256
2663.30840,0.94262
2661.37986,0.94266
2659.45132,0.94263
2657.52279,0.94258
2655.59425,0.94262
2653.66572,0.94272
2651.73718,0.94283
2649.80864,0.94289
2647.88011,0.94289
2645.95157,0.94281
2644.02304,0.94267
2642.09450,0.94269
2640.16596,0.94301
2638.23743,0.94354
2636.30889,0.94411
2634.38035,0.94465
2632.45182,0.94512
2630.52328,0.94554
2628.59475,0.94588
2626.66621,0.94602
2624.73767,0.94600
2622.80914,0.94599
2620.88060,0.94603
2618.95207,0.94602
2617.02353,0.94594
2615.09499,0.94591
2613.16646,0.94600
2611.23792,0.94621
2609.30939,0.94650
2607.38085,0.94682
2605.45231,0.94708
2603.52378,0.94727
2601.59524,0.94748
2599.66670,0.94771
2597.73817,0.94785
2595.80963,0.94789
2593.88110,0.94797
2591.95256,0.94807
2590.02402,0.94822
2588.09549,0.94847
2586.16695,0.94875
2584.23842,0.94898
2582.30988,0.94915
2580.38134,0.94928
2578.45281,0.94944
2576.52427,0.94956
2574.59573,0.94945
2572.66720,0.94917
2570.73866,0.94895
2568.81013,0.94881
2566.88159,0.94873
2564.95305,0.94860
2563.02452,0.94830
2561.09598,0.94800
2559.16745,0.94796
2557.23891,0.94820
2555.31037,0.94849
2553.38184,0.94871
2551.45330,0.94890
2549.52476,0.94907
2547.59623,0.94919
2545.66769,0.94924
2543.73916,0.94924
2541.81062,0.94918
2539.88208,0.94918
2537.95355,0.94937
2536.02501,0.94970
2534.09648,0.95001
2532.16794,0.95022
2530.23940,0.95034
2528.31087,0.95045
2526.38233,0.95060
2524.45380,0.95080
2522.52526,0.95097
2520.59672,0.95110
2518.66819,0.95131
2516.73965,0.95163
2514.81111,0.95195
2512.88258,0.95226
2510.95404,0.95245
2509.02551,0.95247
2507.09697,0.95240
2505.16843,0.95229
2503.23990,0.95210
2501.31136,0.95200
2499.38283,0.95210
2497.45429,0.95235
2495.52575,0.95256
2493.59722,0.95269
2491.66868,0.95282
2489.74014,0.95304
2487.81161,0.95336
2485.88307,0.95362
2483.95454,0.95367
2482.02600,0.95356
2480.09746,0.95347
2478.16893,0.95346
2476.24039,0.95349
2474.31186,0.95347
2472.38332,0.95338
2470.45478,0.95327
2468.52625,0.95318
2466.59771,0.95306
2464.66918,0.95289
2462.74064,0.95277
2460.81210,0.95280
2458.88357,0.95294
2456.95503,0.95311
2455.02649,0.95326
2453.09796,0.95333
2451.16942,0.95340
2449.24089,0.95358
2447.31235,0.95382
2445.38381,0.95397
2443.45528,0.95397
2441.52674,0.95395
2439.59821,0.95404
2437.66967,0.95422
2435.74113,0.95442
2433.81260,0.95461
2431.88406,0.95481
2429.95552,0.95501
2428.02699,0.95511
2426.09845,0.95518
2424.16992,0.95523
2422.24138,0.95518
2420.31284,0.95506
2418.38431,0.95498
2416.45577,0.95490
2414.52724,0.95476
2412.59870,0.95459
2410.67016,0.95446
2408.74163,0.95437
2406.81309,0.95425
2404.88456,0.95417
2402.95602,0.95418
2401.02748,0.95418
2399.09895,0.95408
2397.17041,0.95403
2395.24187,0.95407
2393.31334,0.95405
2391.38480,0.95383
2389.45627,0.95326
2387.52773,0.95202
2385.59919,0.94962
2383.67066,0.94560
2381.74212,0.93998
2379.81359,0.93299
2377.88505,0.92482
2375.95651,0.91557
2374.02798,0.90532
2372.09944,0.89419
2370.17090,0.88247
2368.24237,0.87098
2366.31383,0.86085
2364.38530,0.85262
2362.45676,0.84681
2360.52822,0.84420
2358.59969,0.84597
2356.67115,0.85330
2354.74262,0.86522
2352.81408,0.87971
2350.88554,0.89257
2348.95701,0.89823
2347.02847,0.89474
2345.09994,0.88450
2343.17140,0.87553
2341.24286,0.87295
2339.31433,0.87405
2337.38579,0.87594
2335.45725,0.87780
2333.52872,0.87949
2331.60018,0.88104
2329.67165,0.88311
2327.74311,0.88623
2325.81457,0.89024
2323.88604,0.89486
2321.95750,0.90007
2320.02897,0.90586
2318.10043,0.91165
2316.17189,0.91660
2314.24336,0.92018
2312.31482,0.92272
2310.38628,0.92531
2308.45775,0.92853
2306.52921,0.93195
2304.60068,0.93491
2302.67214,0.93714
2300.74360,0.93897
2298.81507,0.94082
2296.88653,0.94250
2294.95800,0.94381
2293.02946,0.94508
2291.10092,0.94668
2289.17239,0.94859
2287.24385,0.95065
2285.31532,0.95256
2283.38678,0.95389
2281.45824,0.95447
2279.52971,0.95453
2277.60117,0.95439
2275.67263,0.95430
2273.74410,0.95447
2271.81556,0.95482
2269.88703,0.95505
2267.95849,0.95505
2266.02995,0.95499
2264.10142,0.95508
2262.17288,0.95536
2260.24435,0.95572
2258.31581,0.95603
2256.38727,0.95624
2254.45874,0.95628
2252.53020,0.95616
2250.60166,0.95618
2248.67313,0.95638
2246.74459,0.95651
2244.81606,0.95652
2242.88752,0.95648
2240.95898,0.95650
2239.03045,0.95664
2237.10191,0.95681
2235.17338,0.95700
2233.24484,0.95720
2231.31630,0.95731
2229.38777,0.95741
2227.45923,0.95779
2225.53070,0.95831
2223.60216,0.95873
2221.67362,0.95904
2219.74509,0.95927
2217.81655,0.95960
2215.88801,0.96009
2213.95948,0.96056
2212.03094,0.96088
2210.10241,0.96113
2208.17387,0.96138
2206.24533,0.96160
2204.31680,0.96181
2202.38826,0.96206
2200.45973,0.96248
2198.53119,0.96301
2196.60265,0.96343
2194.67412,0.96368
2192.74558,0.96389
2190.81704,0.96408
2188.88851,0.96424
2186.95997,0.96425
2185.03144,0.96408
2183.10290,0.96410
2181.17436,0.96442
2179.24583,0.96477
2177.31729,0.96512
2175.38876,0.96533
2173.46022,0.96530
2171.53168,0.96508
2169.60315,0.96482
2167.67461,0.96476
2165.74607,0.96517
2163.81754,0.96585
2161.88900,0.96662
2159.96047,0.96760
2158.03193,0.96826
2156.10339,0.96794
2154.17486,0.96699
2152.24632,0.96618
2150.31779,0.96586
2148.38925,0.96575
2146.46071,0.96539
2144.53218,0.96473
2142.60364,0.96437
2140.67511,0.96461
2138.74657,0.96496
2136.81803,0.96515
2134.88950,0.96538
2132.96096,0.96554
2131.03242,0.96532
2129.10389,0.96489
2127.17535,0.96457
2125.24682,0.96449
2123.31828,0.96457
2121.38974,0.96456
2119.46121,0.96441
2117.53267,0.96442
2115.60414,0.96468
2113.67560,0.96487
2111.74706,0.96480
2109.81853,0.96465
2107.88999,0.96466
2105.96145,0.96482
2104.03292,0.96496
2102.10438,0.96506
2100.17585,0.96531
2098.24731,0.96561
2096.31877,0.96566
2094.39024,0.96567
2092.46170,0.96605
2090.53317,0.96649
2088.60463,0.96639
2086.67609,0.96606
2084.74756,0.96601
2082.81902,0.96606
2080.89049,0.96597
2078.96195,0.96586
2077.03341,0.96599
2075.10488,0.96633
2073.17634,0.96661
2071.24780,0.96686
2069.31927,0.96737
2067.39073,0.96832
2065.46220,0.96901
2063.53366,0.96863
2061.60512,0.96773
2059.67659,0.96716
2057.74805,0.96725
2055.81952,0.96777
2053.89098,0.96793
2051.96244,0.96775
2050.03391,0.96812
2048.10537,0.96892
2046.17683,0.96943
2044.24830,0.97002
2042.31976,0.97090
2040.39123,0.97129
2038.46269,0.97102
2036.53415,0.97082
2034.60562,0.97104
2032.67708,0.97123
2030.74855,0.97128
2028.82001,0.97176
2026.89147,0.97247
2024.96294,0.97267
2023.03440,0.97249
2021.10587,0.97269
2019.17733,0.97369
2017.24879,0.97429
2015.32026,0.97337
2013.39172,0.97220
2011.46318,0.97187
2009.53465,0.97196
2007.60611,0.97198
2005.67758,0.97167
2003.74904,0.97117
2001.82050,0.97104
1999.89197,0.97115
1997.96343,0.97102
1996.03490,0.97132
1994.10636,0.97322
1992.17782,0.97530
1990.24929,0.97491
1988.32075,0.97295
1986.39221,0.97126
1984.46368,0.97024
1982.53514,0.96990
1980.60661,0.97000
1978.67807,0.97039
1976.74953,0.97069
1974.82100,0.97081
1972.89246,0.97120
1970.96393,0.97215
1969.03539,0.97335
1967.10685,0.97274
1965.17832,0.96936
1963.24978,0.96633
1961.32125,0.96585
1959.39271,0.96671
1957.46417,0.96762
1955.53564,0.96825
1953.60710,0.96833
1951.67856,0.96828
1949.75003,0.96897
1947.82149,0.97070
1945.89296,0.97309
1943.96442,0.97531
1942.03588,0.97516
1940.10735,0.97234
1938.17881,0.97011
1936.25028,0.96950
1934.32174,0.96910
1932.39320,0.96763
1930.46467,0.96525
1928.53613,0.96348
1926.60759,0.96420
1924.67906,0.96796
1922.75052,0.97148
1920.82199,0.97239
1918.89345,0.97278
1916.96491,0.97215
1915.03638,0.97011
1913.10784,0.96975
1911.17931,0.97185
1909.25077,0.97348
1907.32223,0.97236
1905.39370,0.97025
1903.46516,0.96901
1901.53663,0.96830
1899.60809,0.96785
1897.67955,0.96824
1895.75102,0.96867
1893.82248,0.96778
1891.89394,0.96718
1889.96541,0.96700
1888.03687,0.96420
1886.10834,0.95987
1884.17980,0.95609
1882.25126,0.95263
1880.32273,0.94986
1878.39419,0.94802
1876.46566,0.94692
1874.53712,0.94701
1872.60858,0.94973
1870.68005,0.95617
1868.75151,0.96174
1866.82297,0.95874
1864.89444,0.95227
1862.96590,0.94931
1861.03737,0.94975
1859.10883,0.95111
1857.18029,0.95215
1855.25176,0.95316
1853.32322,0.95469
1851.39469,0.95708
1849.46615,0.96090
1847.53761,0.96604
1845.60908,0.97101
1843.68054,0.97136
1841.75200,0.96698
1839.82347,0.96474
1837.89493,0.96588
1835.96640,0.96704
1834.03786,0.96799
1832.10932,0.97204
1830.18079,0.97758
1828.25225,0.97804
1826.32372,0.97562
1824.39518,0.97346
1822.46664,0.97043
1820.53811,0.96807
1818.60957,0.96739
1816.68104,0.96681
1814.75250,0.96620
1812.82396,0.96602
1810.89543,0.96304
1808.96689,0.95629
1807.03835,0.95192
1805.10982,0.95367
1803.18128,0.96002
1801.25275,0.96604
1799.32421,0.96685
1797.39567,0.96487
1795.46714,0.96536
1793.53860,0.96950
1791.61007,0.97124
1789.68153,0.96622
1787.75299,0.96185
1785.82446,0.96122
1783.89592,0.96191
1781.96738,0.96195
1780.03885,0.96018
1778.11031,0.95839
1776.18178,0.96132
1774.25324,0.96984
1772.32470,0.97723
1770.39617,0.97414
1768.46763,0.96624
1766.53910,0.96041
1764.61056,0.95895
1762.68202,0.96070
1760.75349,0.96057
1758.82495,0.95786
1756.89642,0.95439
1754.96788,0.95101
1753.03934,0.95180
1751.11081,0.95812
1749.18227,0.96216
1747.25373,0.95759
1745.32520,0.95046
1743.39666,0.94487
1741.46813,0.94105
1739.53959,0.93796
1737.61105,0.93641
1735.68252,0.93964
1733.75398,0.94433
1731.82545,0.93985
1729.89691,0.93086
1727.96837,0.92294
1726.03984,0.91878
1724.11130,0.91809
1722.18276,0.91899
1720.25423,0.92365
1718.32569,0.93464
1716.39716,0.93936
1714.46862,0.92767
1712.54008,0.91584
1710.61155,0.91039
1708.68301,0.91106
1706.75448,0.91571
1704.82594,0.91899
1702.89740,0.92011
1700.96887,0.92472
1699.04033,0.93110
1697.11180,0.93033
1695.18326,0.92177
1693.25472,0.91507
1691.32619,0.91634
1689.39765,0.92335
1687.46911,0.93200
1685.54058,0.94386
1683.61204,0.95453
1681.68351,0.95168
1679.75497,0.94691
1677.82643,0.94662
1675.89790,0.95144
1673.96936,0.95804
1672.04083,0.96425
1670.11229,0.96913
1668.18375,0.96472
1666.25522,0.95843
1664.32668,0.95904
1662.39814,0.96167
1660.46961,0.95939
1658.54107,0.95808
1656.61254,0.96331
1654.68400,0.97570
1652.75546,0.98256
1650.82693,0.97649
1648.89839,0.97743
1646.96986,0.97900
1645.04132,0.96808
1643.11278,0.95818
1641.18425,0.95565
1639.25571,0.95899
1637.32718,0.96478
1635.39864,0.95801
1633.47010,0.93980
1631.54157,0.92971
1629.61303,0.92697
1627.68449,0.92674
1625.75596,0.92775
1623.82742,0.93115
1621.89889,0.93283
1619.97035,0.93393
1618.04181,0.93972
1616.11328,0.94362
1614.18474,0.93978
1612.25621,0.93821
1610.32767,0.94093
1608.39913,0.94170
1606.47060,0.93657
1604.54206,0.92943
1602.61352,0.92440
1600.68499,0.92325
1598.75645,0.92612
1596.82792,0.93013
1594.89938,0.93119
1592.97084,0.93087
1591.04231,0.93433
1589.11377,0.94083
1587.18524,0.94659
1585.25670,0.95061
1583.32816,0.95315
1581.39963,0.95545
1579.47109,0.96077
1577.54256,0.97066
1575.61402,0.97599
1573.68548,0.97256
1571.75695,0.97320
1569.82841,0.97834
1567.89987,0.97886
1565.97134,0.97684
1564.04280,0.97770
1562.11427,0.98285
1560.18573,0.99715
1558.25719,1.01028
1556.32866,0.99938
1554.40012,0.98816
1552.47159,0.98168
1550.54305,0.97876
1548.61451,0.97727
1546.68598,0.98054
1544.75744,0.99297
1542.82890,1.01146
1540.90037,1.02095
1538.97183,1.00236
1537.04330,0.98643
1535.11476,0.98377
1533.18622,0.98369
1531.25769,0.97903
1529.32915,0.97780
1527.40062,0.98353
1525.47208,0.99147
1523.54354,0.99908
1521.61501,1.00271
1519.68647,0.99732
1517.75793,0.98850
1515.82940,0.97355
1513.90086,0.95729
1511.97233,0.95094
1510.04379,0.95904
1508.11525,0.97933
1506.18672,0.98121
1504.25818,0.96403
1502.32965,0.95608
1500.40111,0.95425
1498.47257,0.95110
1496.54404,0.93868
1494.61550,0.92591
1492.68697,0.92530
1490.75843,0.93435
1488.82989,0.93472
1486.90136,0.91634
1484.97282,0.89814
1483.04428,0.88773
1481.11575,0.88152
1479.18721,0.87418
1477.25868,0.86375
1475.33014,0.85464
1473.40160,0.85434
1471.47307,0.85561
1469.54453,0.85312
1467.61600,0.85438
1465.68746,0.85754
1463.75892,0.84979
1461.83039,0.83453
1459.90185,0.82971
1457.97331,0.85081
1456.04478,0.88098
1454.11624,0.88722
1452.18771,0.88852
1450.25917,0.89235
1448.33063,0.89631
1446.40210,0.89602
1444.47356,0.89282
1442.54503,0.89050
1440.61649,0.88982
1438.68795,0.88835
1436.75942,0.87962
1434.83088,0.86932
1432.90235,0.87205
1430.97381,0.88386
1429.04527,0.89318
1427.11674,0.89768
1425.18820,0.90449
1423.25966,0.91375
1421.33113,0.92227
1419.40259,0.93023
1417.47406,0.92944
1415.54552,0.92115
1413.61698,0.91747
1411.68845,0.91996
1409.75991,0.92333
1407.83138,0.92510
1405.90284,0.92527
1403.97430,0.92069
1402.04577,0.91364
1400.11723,0.90961
1398.18869,0.90811
1396.26016,0.90381
1394.33162,0.89330
1392.40309,0.88430
1390.47455,0.88478
1388.54601,0.89095
1386.61748,0.89033
1384.68894,0.87717
1382.76041,0.85748
1380.83187,0.83060
1378.90333,0.79339
1376.97480,0.74862
1375.04626,0.69372
1373.11773,0.63313
1371.18919,0.59093
1369.26065,0.56817
1367.33212,0.55094
1365.40358,0.53494
1363.47504,0.52780
1361.54651,0.54174
1359.61797,0.57243
1357.68944,0.60901
1355.76090,0.64623
1353.83236,0.67801
1351.90383,0.70582
1349.97529,0.73659
1348.04676,0.76419
1346.11822,0.77363
1344.18968,0.76433
1342.26115,0.75244
1340.33261,0.75099
1338.40407,0.75789
1336.47554,0.76732
1334.54700,0.77875
1332.61847,0.78383
1330.68993,0.77174
1328.76139,0.75154
1326.83286,0.74099
1324.90432,0.73793
1322.97579,0.73541
1321.04725,0.73865
1319.11871,0.75022
1317.19018,0.76354
1315.26164,0.76908
1313.33311,0.75823
1311.40457,0.73241
1309.47603,0.70783
1307.54750,0.69960
1305.61896,0.71034
1303.69042,0.73252
1301.76189,0.75646
1299.83335,0.77640
1297.90482,0.79087
1295.97628,0.80072
1294.04774,0.80729
1292.11921,0.81005
1290.19067,0.80549
1288.26214,0.78783
1286.33360,0.75242
1284.40506,0.69977
1282.47653,0.63723
1280.54799,0.57935
1278.61945,0.53960
1276.69092,0.52217
1274.76238,0.52636
1272.83385,0.54988
1270.90531,0.58752
1268.97677,0.63169
1267.04824,0.67477
1265.11970,0.71356
1263.19117,0.74858
1261.26263,0.77871
1259.33409,0.80126
1257.40556,0.81583
1255.47702,0.82465
1253.54849,0.82961
1251.61995,0.83198
1249.69141,0.83406
1247.76288,0.83791
1245.83434,0.84336
1243.90580,0.84784
1241.97727,0.84777
1240.04873,0.83985
1238.12020,0.82232
1236.19166,0.79599
1234.26312,0.76163
1232.33459,0.72165
1230.40605,0.68899
1228.47752,0.68111
1226.54898,0.69844
1224.62044,0.72041
1222.69191,0.72399
1220.76337,0.70648
1218.83483,0.68986
1216.90630,0.68929
1214.97776,0.69190
1213.04923,0.68505
1211.12069,0.67673
1209.19215,0.67612
1207.26362,0.67893
1205.33508,0.67877
1203.40655,0.67979
1201.47801,0.69096
1199.54947,0.71328
1197.62094,0.73985
1195.69240,0.76390
1193.76387,0.78217
1191.83533,0.79377
1189.90679,0.79876
1187.97826,0.79689
1186.04972,0.78621
1184.12118,0.76241
1182.19265,0.72178
1180.26411,0.66807
1178.33558,0.61398
1176.40704,0.57070
1174.47850,0.53993
1172.54997,0.51731
1170.62143,0.49956
1168.69290,0.48781
1166.76436,0.48402
1164.83582,0.48661
1162.90729,0.49146
1160.97875,0.49388
1159.05021,0.49052
1157.12168,0.48372
1155.19314,0.48191
1153.26461,0.49200
1151.33607,0.51432
1149.40753,0.54545
1147.47900,0.58014
1145.55046,0.61095
1143.62193,0.63123
1141.69339,0.63808
1139.76485,0.63127
1137.83632,0.61121
1135.90778,0.57948
1133.97924,0.54042
1132.05071,0.50179
1130.12217,0.47099
1128.19364,0.44741
1126.26510,0.42358
1124.33656,0.39761
1122.40803,0.37736
1120.47949,0.37066
1118.55096,0.37730
1116.62242,0.39132
1114.69388,0.40847
1112.76535,0.42904
1110.83681,0.45418
1108.90828,0.48266
1106.97974,0.51161
1105.05120,0.53779
1103.12267,0.55638
1101.19413,0.56085
1099.26559,0.55207
1097.33706,0.54523
1095.40852,0.55410
1093.47999,0.57561
1091.55145,0.59928
1089.62291,0.61926
1087.69438,0.63466
1085.76584,0.64644
1083.83731,0.65580
1081.90877,0.66462
1079.98023,0.67492
1078.05170,0.68719
1076.12316,0.70002
1074.19462,0.71169
1072.26609,0.72151
1070.33755,0.72992
1068.40902,0.73766
1066.48048,0.74474
1064.55194,0.75059
1062.62341,0.75491
1060.69487,0.75809
1058.76634,0.76097
1056.83780,0.76426
1054.90926,0.76823
1052.98073,0.77245
1051.05219,0.77594
1049.12366,0.77646
1047.19512,0.76601
1045.26658,0.73241
1043.33805,0.68570
1041.40951,0.66497
1039.48097,0.68587
1037.55244,0.71976
1035.62390,0.74095
1033.69537,0.74879
1031.76683,0.74890
1029.83829,0.74065
1027.90976,0.71638
1025.98122,0.66991
1024.05269,0.60878
1022.12415,0.55011
1020.19561,0.50493
1018.26708,0.47699
1016.33854,0.46812
1014.41000,0.47671
1012.48147,0.49802
1010.55293,0.52670
1008.62440,0.55575
1006.69586,0.57565
1004.76732,0.58599
1002.83879,0.59952
1000.91025,0.62162
998.98172,0.64460
997.05318,0.66406
995.12464,0.68160
993.19611,0.69841
991.26757,0.71458
989.33904,0.72947
987.41050,0.74115
985.48196,0.74661
983.55343,0.73963
981.62489,0.71619
979.69635,0.69269
977.76782,0.69336
975.83928,0.71205
973.91075,0.71657
971.98221,0.67608
970.05367,0.58672
968.12514,0.49486
966.19660,0.45534
964.26807,0.46893
962.33953,0.50194
960.41099,0.53394
958.48246,0.56242
956.55392,0.58900
954.62538,0.61382
952.69685,0.63561
950.76831,0.65221
948.83978,0.66402
946.91124,0.67583
944.98270,0.68782
943.05417,0.68969
941.12563,0.66818
939.19710,0.62408
937.26856,0.58475
935.34002,0.57880
933.41149,0.60136
931.48295,0.63034
929.55442,0.65616
927.62588,0.67933
925.69734,0.69992
923.76881,0.71659
921.84027,0.72872
919.91173,0.73695
917.98320,0.74316
916.05466,0.74937
914.12613,0.75619
912.19759,0.76162
910.26905,0.75506
908.34052,0.71846
906.41198,0.66215
904.48345,0.63657
902.55491,0.66285
900.62637,0.70502
898.69784,0.73057
896.76930,0.73423
894.84076,0.70682
892.91223,0.63542
890.98369,0.55464
889.05516,0.53332
887.12662,0.57943
885.19808,0.64040
883.26955,0.68472
881.34101,0.71458
879.41248,0.73616
877.48394,0.75216
875.55540,0.76471
873.62687,0.77529
871.69833,0.78423
869.76980,0.78764
867.84126,0.77015
865.91272,0.72072
863.98419,0.66993
862.05565,0.66344
860.12711,0.69533
858.19858,0.72798
856.27004,0.74729
854.34151,0.75884
852.41297,0.76742
850.48443,0.77453
848.55590,0.78042
846.62736,0.78500
844.69883,0.78837
842.77029,0.79084
840.84175,0.79263
838.91322,0.79387
836.98468,0.79448
835.05614,0.79444
833.12761,0.79356
831.19907,0.79169
829.27054,0.78873
827.34200,0.78454
825.41346,0.77901
823.48493,0.77256
821.55639,0.76633
819.62786,0.76099
817.69932,0.75622
815.77078,0.75098
813.84225,0.74419
811.91371,0.73579
809.98517,0.72728
808.05664,0.72173
806.12810,0.72167
804.19957,0.72663
802.27103,0.73366
800.34249,0.74014
798.41396,0.74497
796.48542,0.74708
794.55689,0.74330
792.62835,0.72490
790.69981,0.67932
788.77128,0.60868
786.84274,0.54302
784.91421,0.51690
782.98567,0.53724
781.05713,0.58390
779.12860,0.63409
777.20006,0.67764
775.27152,0.71282
773.34299,0.74026
771.41445,0.76188
769.48592,0.77933
767.55738,0.79353
765.62884,0.80443
763.70031,0.81042
761.77177,0.80623
759.84324,0.78851
757.91470,0.76767
755.98616,0.74849
754.05763,0.69832
752.12909,0.59561
750.20055,0.49795
748.27202,0.47679
746.34348,0.52614
744.41495,0.59577
742.48641,0.65207
740.55787,0.67807
738.62934,0.66573
736.70080,0.63611
734.77227,0.62916
732.84373,0.64583
730.91519,0.64392
728.98666,0.61522
727.05812,0.60663
725.12959,0.63910
723.20105,0.68123
721.27251,0.71103
719.34398,0.73228
717.41544,0.74817
715.48690,0.75215
713.55837,0.73323
711.62983,0.70281
709.70130,0.69613
707.77276,0.72189
705.84422,0.75394
703.91569,0.77487
701.98715,0.78670
700.05862,0.79418
698.13008,0.79974
696.20154,0.80441
694.27301,0.80863
692.34447,0.81274
690.41593,0.81703
688.48740,0.82153
686.55886,0.82564
684.63033,0.82933
682.70179,0.83291
680.77325,0.83650
678.84472,0.83955
676.91618,0.83738
674.98765,0.81933
673.05911,0.78836
671.13057,0.76419
669.20204,0.73614
667.27350,0.68768
665.34497,0.66654
663.41643,0.65825
661.48789,0.64673
659.55936,0.66430
657.63082,0.71871
655.70228,0.76918
653.77375,0.79631
651.84521,0.80814
649.91668,0.81075
647.98814,0.80552
646.05960,0.79567
644.13107,0.79087
642.20253,0.79902
640.27400,0.81535
638.34546,0.82945
636.41692,0.83873
634.48839,0.84530
632.55985,0.84985
630.63131,0.85245
628.70278,0.85335
626.77424,0.85221
624.84571,0.84642
622.91717,0.82825
620.98863,0.78570
619.06010,0.72684
617.13156,0.69341
615.20303,0.70941
613.27449,0.74710
611.34595,0.77694
609.41742,0.79365
607.48888,0.80093
605.56035,0.80278
603.63181,0.80250
601.70327,0.80289
599.77474,0.80582
597.84620,0.81144
595.91766,0.81911
593.98913,0.82796
592.06059,0.83657
590.13206,0.84310
588.20352,0.84763
586.27498,0.85167
584.34645,0.85556
582.41791,0.85921
580.48938,0.86180
578.56084,0.86242
576.63230,0.86035
574.70377,0.85253
572.77523,0.83136
570.84669,0.78783
568.91816,0.73806
566.98962,0.72590
565.06109,0.75879
563.13255,0.79911
561.20401,0.82258
559.27548,0.83079
557.34694,0.82943
555.41841,0.81647
553.48987,0.78040
551.56133,0.70887
549.63280,0.60721
547.70426,0.50963
545.77573,0.45800
543.84719,0.46360
541.91865,0.49945
539.99012,0.52982
538.06158,0.53515
536.13304,0.52436
534.20451,0.52810
532.27597,0.56298
530.34744,0.61428
528.41890,0.66130
526.49036,0.69653
524.56183,0.71706
522.63329,0.72215
520.70476,0.70874
518.77622,0.65880
516.84768,0.56729
514.91915,0.48238
512.99061,0.44836
511.06207,0.46002
509.13354,0.49344
507.20500,0.53578
505.27647,0.57895
503.34793,0.61253
501.41939,0.62322
499.49086,0.60116
497.56232,0.56902
495.63379,0.56606
493.70525,0.59935
491.77671,0.63964
489.84818,0.66559
487.91964,0.67950
485.99110,0.68786
484.06257,0.69240
482.13403,0.69345
480.20550,0.69345
478.27696,0.69437
476.34842,0.69741
474.41989,0.70449
472.49135,0.71408
470.56282,0.72073
468.63428,0.72510
466.70574,0.73067
464.77721,0.73719
462.84867,0.74459
460.92014,0.75331
458.99160,0.76241
457.06306,0.76819
455.13453,0.76874
453.20599,0.76385
451.27745,0.74289
449.34892,0.70045
447.42038,0.65328
445.49185,0.62645
443.56331,0.63073
441.63477,0.65792
439.70624,0.68774
437.77770,0.70902
435.84917,0.72358
433.92063,0.73304
431.99209,0.73944
430.06356,0.74438
428.13502,0.74869
426.20648,0.75430
424.27795,0.76039
422.34941,0.76527
420.42088,0.77130
418.49234,0.77649
416.56380,0.77384
414.63527,0.77029
412.70673,0.76939
410.77820,0.76905
408.84966,0.76807
406.92112,0.76634
404.99259,0.76433
403.06405,0.76487
401.13552,0.77126
399.20698,0.78439
