3997.85540,0.94120
3995.92686,0.94111
3993.99833,0.94112
3992.06979,0.94113
3990.14125,0.94113
3988.21272,0.94118
3986.28418,0.94124
3984.35565,0.94122
3982.42711,0.94114
3980.49857,0.94110
3978.57004,0.94107
3976.64150,0.94099
3974.71297,0.94084
3972.78443,0.94069
3970.85589,0.94060
3968.92736,0.94060
3966.99882,0.94063
3965.07029,0.94060
3963.14175,0.94054
3961.21321,0.94067
3959.28468,0.94098
3957.35614,0.94114
3955.42760,0.94112
3953.49907,0.94105
3951.57053,0.94097
3949.64200,0.94094
3947.71346,0.94099
3945.78492,0.94097
3943.85639,0.94092
3941.92785,0.94104
3939.99932,0.94124
3938.07078,0.94136
3936.14224,0.94136
3934.21371,0.94123
3932.28517,0.94099
3930.35663,0.94099
3928.42810,0.94125
3926.49956,0.94137
3924.57103,0.94140
3922.64249,0.94151
3920.71395,0.94160
3918.78542,0.94154
3916.85688,0.94152
3914.92835,0.94168
3912.99981,0.94195
3911.07127,0.94214
3909.14274,0.94214
3907.21420,0.94188
3905.28566,0.94135
3903.35713,0.94087
3901.42859,0.94092
3899.50006,0.94119
3897.57152,0.94152
3895.64298,0.94173
3893.71445,0.94166
3891.78591,0.94148
3889.85738,0.94147
3887.92884,0.94135
3886.00030,0.94102
3884.07177,0.94085
3882.14323,0.94100
3880.21470,0.94134
3878.28616,0.94164
3876.35762,0.94163
3874.42909,0.94130
3872.50055,0.94087
3870.57201,0.94078
3868.64348,0.94110
3866.71494,0.94116
3864.78641,0.94098
3862.85787,0.94123
3860.92933,0.94176
3859.00080,0.94192
3857.07226,0.94163
3855.14373,0.94097
3853.21519,0.94060
3851.28665,0.94132
3849.35812,0.94188
3847.42958,0.94205
3845.50104,0.94191
3843.57251,0.94151
3841.64397,0.94108
3839.71544,0.94077
3837.78690,0.94073
3835.85836,0.94102
3833.92983,0.94138
3832.00129,0.94165
3830.07276,0.94176
3828.14422,0.94176
3826.21568,0.94174
3824.28715,0.94165
3822.35861,0.94125
3820.43008,0.94083
3818.50154,0.94093
3816.57300,0.94131
3814.64447,0.94196
3812.71593,0.94244
3810.78739,0.94248
3808.85886,0.94219
3806.93032,0.94179
3805.00179,0.94162
3803.07325,0.94149
3801.14471,0.94137
3799.21618,0.94157
3797.28764,0.94190
3795.35911,0.94221
3793.43057,0.94245
3791.50203,0.94261
3789.57350,0.94262
3787.64496,0.94238
3785.71642,0.94210
3783.78789,0.94209
3781.85935,0.94221
3779.93082,0.94226
3778.00228,0.94247
3776.07374,0.94279
3774.14521,0.94289
3772.21667,0.94271
3770.28814,0.94242
3768.35960,0.94233
3766.43106,0.94249
3764.50253,0.94273
3762.57399,0.94281
3760.64546,0.94260
3758.71692,0.94224
3756.78838,0.94209
3754.85985,0.94205
3752.93131,0.94181
3751.00277,0.94123
3749.07424,0.94084
3747.14570,0.94084
3745.21717,0.94097
3743.28863,0.94123
3741.36009,0.94136
3739.43156,0.94115
3737.50302,0.94050
3735.57449,0.93953
3733.64595,0.93900
3731.71741,0.93910
3729.78888,0.93938
3727.86034,0.93957
3725.93180,0.93964
3724.00327,0.93981
3722.07473,0.94027
3720.14620,0.94097
3718.21766,0.94169
3716.28912,0.94212
3714.36059,0.94200
3712.43205,0.94112
3710.50352,0.94020
3708.57498,0.94038
3706.64644,0.94076
3704.71791,0.94083
3702.78937,0.94075
3700.86084,0.94076
3698.93230,0.94083
3697.00376,0.94080
3695.07523,0.94061
3693.14669,0.94024
3691.21815,0.93980
3689.28962,0.93970
3687.36108,0.94013
3685.43255,0.94052
3683.50401,0.94074
3681.57547,0.94076
3679.64694,0.94063
3677.71840,0.94041
3675.78987,0.94019
3673.86133,0.94025
3671.93279,0.94030
3670.00426,0.94047
3668.07572,0.94122
3666.14718,0.94184
3664.21865,0.94206
3662.29011,0.94198
3660.36158,0.94178
3658.43304,0.94156
3656.50450,0.94138
3654.57597,0.94137
3652.64743,0.94140
3650.71890,0.94108
3648.79036,0.94034
3646.86182,0.94052
3644.93329,0.94102
3643.00475,0.94122
3641.07622,0.94114
3639.14768,0.94094
3637.21914,0.94068
3635.29061,0.94031
3633.36207,0.93984
3631.43353,0.93931
3629.50500,0.93877
3627.57646,0.93867
3625.64793,0.93893
3623.71939,0.93910
3621.79085,0.93921
3619.86232,0.93938
3617.93378,0.93961
3616.00525,0.93982
3614.07671,0.93995
3612.14817,0.93978
3610.21964,0.93937
3608.29110,0.93914
3606.36256,0.93938
3604.43403,0.93967
3602.50549,0.93958
3600.57696,0.93918
3598.64842,0.93892
3596.71988,0.93882
3594.79135,0.93884
3592.86281,0.93923
3590.93428,0.93967
3589.00574,0.93977
3587.07720,0.93958
3585.14867,0.93960
3583.22013,0.93984
3581.29160,0.94001
3579.36306,0.93998
3577.43452,0.93992
3575.50599,0.94008
3573.57745,0.94031
3571.64891,0.94030
3569.72038,0.93988
3567.79184,0.93906
3565.86331,0.93864
3563.93477,0.93893
3562.00623,0.93917
3560.07770,0.93932
3558.14916,0.93943
3556.22063,0.93930
3554.29209,0.93892
3552.36355,0.93865
3550.43502,0.93868
3548.50648,0.93864
3546.57794,0.93833
3544.64941,0.93807
3542.72087,0.93812
3540.79234,0.93830
3538.86380,0.93833
3536.93526,0.93822
3535.00673,0.93819
3533.07819,0.93818
3531.14966,0.93795
3529.22112,0.93762
3527.29258,0.93749
3525.36405,0.93757
3523.43551,0.93766
3521.50697,0.93768
3519.57844,0.93771
3517.64990,0.93780
3515.72137,0.93782
3513.79283,0.93772
3511.86429,0.93762
3509.93576,0.93760
3508.00722,0.93763
3506.07869,0.93762
3504.15015,0.93758
3502.22161,0.93757
3500.29308,0.93765
3498.36454,0.93773
3496.43601,0.93786
3494.50747,0.93810
3492.57893,0.93834
3490.65040,0.93841
3488.72186,0.93833
3486.79332,0.93827
3484.86479,0.93827
3482.93625,0.93827
3481.00772,0.93831
3479.07918,0.93846
3477.15064,0.93868
3475.22211,0.93888
3473.29357,0.93900
3471.36504,0.93908
3469.43650,0.93916
3467.50796,0.93927
3465.57943,0.93944
3463.65089,0.93957
3461.72235,0.93960
3459.79382,0.93966
3457.86528,0.93974
3455.93675,0.93976
3454.00821,0.93975
3452.07967,0.93979
3450.15114,0.93988
3448.22260,0.94003
3446.29407,0.94021
3444.36553,0.94030
3442.43699,0.94028
3440.50846,0.94034
3438.57992,0.94049
3436.65139,0.94067
3434.72285,0.94081
3432.79431,0.94088
3430.86578,0.94092
3428.93724,0.94097
3427.00870,0.94103
3425.08017,0.94107
3423.15163,0.94114
3421.22310,0.94123
3419.29456,0.94136
3417.36602,0.94150
3415.43749,0.94158
3413.50895,0.94163
3411.58042,0.94169
3409.65188,0.94178
3407.72334,0.94187
3405.79481,0.94196
3403.86627,0.94205
3401.93773,0.94213
3400.00920,0.94216
3398.08066,0.94218
3396.15213,0.94223
3394.22359,0.94226
3392.29505,0.94229
3390.36652,0.94236
3388.43798,0.94244
3386.50945,0.94246
3384.58091,0.94250
3382.65237,0.94259
3380.72384,0.94271
3378.79530,0.94282
3376.86677,0.94291
3374.93823,0.94296
3373.00969,0.94302
3371.08116,0.94311
3369.15262,0.94321
3367.22408,0.94325
3365.29555,0.94321
3363.36701,0.94315
3361.43848,0.94313
3359.50994,0.94320
3357.58140,0.94331
3355.65287,0.94342
3353.72433,0.94347
3351.79580,0.94350
3349.86726,0.94354
3347.93872,0.94362
3346.01019,0.94373
3344.08165,0.94376
3342.15311,0.94364
3340.22458,0.94352
3338.29604,0.94350
3336.36751,0.94356
3334.43897,0.94367
3332.51043,0.94384
3330.58190,0.94397
3328.65336,0.94402
3326.72483,0.94400
3324.79629,0.94396
3322.86775,0.94393
3320.93922,0.94394
3319.01068,0.94399
3317.08215,0.94402
3315.15361,0.94404
3313.22507,0.94407
3311.29654,0.94408
3309.36800,0.94408
3307.43946,0.94408
3305.51093,0.94410
3303.58239,0.94421
3301.65386,0.94432
3299.72532,0.94429
3297.79678,0.94418
3295.86825,0.94411
3293.93971,0.94407
3292.01118,0.94403
3290.08264,0.94405
3288.15410,0.94414
3286.22557,0.94423
3284.29703,0.94426
3282.36849,0.94432
3280.43996,0.94439
3278.51142,0.94429
3276.58289,0.94414
3274.65435,0.94418
3272.72581,0.94434
3270.79728,0.94442
3268.86874,0.94438
3266.94021,0.94433
3265.01167,0.94427
3263.08313,0.94417
3261.15460,0.94406
3259.22606,0.94402
3257.29753,0.94397
3255.36899,0.94394
3253.44045,0.94401
3251.51192,0.94415
3249.58338,0.94422
3247.65484,0.94416
3245.72631,0.94411
3243.79777,0.94419
3241.86924,0.94433
3239.94070,0.94439
3238.01216,0.94439
3236.08363,0.94441
3234.15509,0.94439
3232.22656,0.94426
3230.29802,0.94410
3228.36948,0.94398
3226.44095,0.94396
3224.51241,0.94394
3222.58387,0.94387
3220.65534,0.94382
3218.72680,0.94385
3216.79827,0.94391
3214.86973,0.94393
3212.94119,0.94387
3211.01266,0.94378
3209.08412,0.94378
3207.15559,0.94391
3205.22705,0.94407
3203.29851,0.94413
3201.36998,0.94409
3199.44144,0.94412
3197.51290,0.94426
3195.58437,0.94433
3193.65583,0.94426
3191.72730,0.94416
3189.79876,0.94413
3187.87022,0.94413
3185.94169,0.94410
3184.01315,0.94405
3182.08462,0.94406
3180.15608,0.94414
3178.22754,0.94415
3176.29901,0.94399
3174.37047,0.94378
3172.44194,0.94367
3170.51340,0.94369
3168.58486,0.94372
3166.65633,0.94371
3164.72779,0.94361
3162.79925,0.94348
3160.87072,0.94344
3158.94218,0.94351
3157.01365,0.94365
3155.08511,0.94376
3153.15657,0.94373
3151.22804,0.94359
3149.29950,0.94348
3147.37097,0.94339
3145.44243,0.94329
3143.51389,0.94322
3141.58536,0.94316
3139.65682,0.94309
3137.72828,0.94300
3135.79975,0.94283
3133.87121,0.94264
3131.94268,0.94248
3130.01414,0.94230
3128.08560,0.94205
3126.15707,0.94175
3124.22853,0.94150
3122.30000,0.94131
3120.37146,0.94100
3118.44292,0.94050
3116.51439,0.93989
3114.58585,0.93920
3112.65732,0.93851
3110.72878,0.93795
3108.80024,0.93751
3106.87171,0.93709
3104.94317,0.93663
3103.01463,0.93614
3101.08610,0.93565
3099.15756,0.93509
3097.22903,0.93429
3095.30049,0.93312
3093.37195,0.93164
3091.44342,0.93012
3089.51488,0.92877
3087.58635,0.92766
3085.65781,0.92681
3083.72927,0.92624
3081.80074,0.92599
3079.87220,0.92609
3077.94366,0.92631
3076.01513,0.92634
3074.08659,0.92613
3072.15806,0.92589
3070.22952,0.92569
3068.30098,0.92556
3066.37245,0.92552
3064.44391,0.92554
3062.51538,0.92545
3060.58684,0.92513
3058.65830,0.92467
3056.72977,0.92440
3054.80123,0.92452
3052.87270,0.92485
3050.94416,0.92515
3049.01562,0.92552
3047.08709,0.92602
3045.15855,0.92657
3043.23001,0.92710
3041.30148,0.92766
3039.37294,0.92831
3037.44441,0.92909
3035.51587,0.92995
3033.58733,0.93081
3031.65880,0.93166
3029.73026,0.93251
3027.80173,0.93333
3025.87319,0.93413
3023.94465,0.93482
3022.01612,0.93531
3020.08758,0.93562
3018.15904,0.93586
3016.23051,0.93598
3014.30197,0.93603
3012.37344,0.93615
3010.44490,0.93628
3008.51636,0.93627
3006.58783,0.93620
3004.65929,0.93617
3002.73076,0.93621
3000.80222,0.93634
2998.87368,0.93649
2996.94515,0.93661
2995.01661,0.93675
2993.08808,0.93692
2991.15954,0.93706
2989.23100,0.93726
2987.30247,0.93749
2985.37393,0.93754
2983.44539,0.93735
2981.51686,0.93719
2979.58832,0.93722
2977.65979,0.93735
2975.73125,0.93748
2973.80271,0.93753
2971.87418,0.93754
2969.94564,0.93756
2968.01711,0.93756
2966.08857,0.93751
2964.16003,0.93743
2962.23150,0.93737
2960.30296,0.93737
2958.37442,0.93739
2956.44589,0.93738
2954.51735,0.93739
2952.58882,0.93743
2950.66028,0.93749
2948.73174,0.93754
2946.80321,0.93746
2944.87467,0.93715
2942.94614,0.93660
2941.01760,0.93589
2939.08906,0.93506
2937.16053,0.93412
2935.23199,0.93307
2933.30346,0.93194
2931.37492,0.93086
2929.44638,0.93006
2927.51785,0.92974
2925.58931,0.92995
2923.66077,0.93056
2921.73224,0.93140
2919.80370,0.93229
2917.87517,0.93311
2915.94663,0.93392
2914.01809,0.93482
2912.08956,0.93568
2910.16102,0.93638
2908.23249,0.93690
2906.30395,0.93731
2904.37541,0.93763
2902.44688,0.93787
2900.51834,0.93815
2898.58980,0.93850
2896.66127,0.93881
2894.73273,0.93893
2892.80420,0.93901
2890.87566,0.93921
2888.94712,0.93946
2887.01859,0.93968
2885.09005,0.93990
2883.16152,0.94010
2881.23298,0.94017
2879.30444,0.94012
2877.37591,0.94002
2875.44737,0.93989
2873.51883,0.93976
2871.59030,0.93971
2869.66176,0.93965
2867.73323,0.93944
2865.80469,0.93908
2863.87615,0.93864
2861.94762,0.93811
2860.01908,0.93749
2858.09055,0.93685
2856.16201,0.93633
2854.23347,0.93602
2852.30494,0.93603
2850.37640,0.93649
2848.44787,0.93727
2846.51933,0.93806
2844.59079,0.93876
2842.66226,0.93949
2840.73372,0.94028
2838.80518,0.94101
2836.87665,0.94156
2834.94811,0.94194
2833.01958,0.94222
2831.09104,0.94246
2829.16250,0.94270
2827.23397,0.94295
2825.30543,0.94323
2823.37690,0.94348
2821.44836,0.94366
2819.51982,0.94381
2817.59129,0.94393
2815.66275,0.94400
2813.73421,0.94408
2811.80568,0.94420
2809.87714,0.94430
2807.94861,0.94439
2806.02007,0.94452
2804.09153,0.94466
2802.16300,0.94481
2800.23446,0.94499
2798.30593,0.94514
2796.37739,0.94524
2794.44885,0.94530
2792.52032,0.94531
2790.59178,0.94538
2788.66325,0.94553
2786.73471,0.94567
2784.80617,0.94577
2782.87764,0.94583
2780.94910,0.94583
2779.02056,0.94581
2777.09203,0.94579
2775.16349,0.94580
2773.23496,0.94582
2771.30642,0.94583
2769.37788,0.94586
2767.44935,0.94588
2765.52081,0.94591
2763.59228,0.94599
2761.66374,0.94607
2759.73520,0.94609
2757.80667,0.94605
2755.87813,0.94605
2753.94959,0.94610
2752.02106,0.94619
2750.09252,0.94623
2748.16399,0.94618
2746.23545,0.94606
2744.30691,0.94589
2742.37838,0.94573
2740.44984,0.94563
2738.52131,0.94559
2736.59277,0.94550
2734.66423,0.94536
2732.73570,0.94519
2730.80716,0.94504
2728.87863,0.94498
2726.95009,0.94499
2725.02155,0.94491
2723.09302,0.94470
2721.16448,0.94443
2719.23594,0.94412
2717.30741,0.94386
2715.37887,0.94366
2713.45034,0.94356
2711.52180,0.94362
2709.59326,0.94371
2707.66473,0.94369
2705.73619,0.94376
2703.80766,0.94405
2701.87912,0.94443
2699.95058,0.94481
2698.02205,0.94513
2696.09351,0.94538
2694.16497,0.94558
2692.23644,0.94571
2690.30790,0.94576
2688.37937,0.94581
2686.45083,0.94592
2684.52229,0.94608
2682.59376,0.94629
2680.66522,0.94653
2678.73669,0.94662
2676.80815,0.94659
2674.87961,0.94655
2672.95108,0.94655
2671.02254,0.94657
2669.09401,0.94660
2667.16547,0.94653
2665.23693,0.94632
2663.30840,0.94604
2661.37986,0.94586
2659.45132,0.94578
2657.52279,0.94571
2655.59425,0.94558
2653.66572,0.94542
2651.73718,0.94527
2649.80864,0.94521
2647.88011,0.94525
2645.95157,0.94536
2644.02304,0.94551
2642.09450,0.94569
2640.16596,0.94585
2638.23743,0.94591
2636.30889,0.94588
2634.38035,0.94585
2632.45182,0.94586
2630.52328,0.94593
2628.59475,0.94603
2626.66621,0.94613
2624.73767,0.94614
2622.80914,0.94596
2620.88060,0.94575
2618.95207,0.94567
2617.02353,0.94574
2615.09499,0.94589
2613.16646,0.94601
2611.23792,0.94601
2609.30939,0.94592
2607.38085,0.94586
2605.45231,0.94586
2603.52378,0.94581
2601.59524,0.94573
2599.66670,0.94569
2597.73817,0.94569
2595.80963,0.94572
2593.88110,0.94572
2591.95256,0.94570
2590.02402,0.94572
2588.09549,0.94575
2586.16695,0.94576
2584.23842,0.94587
2582.30988,0.94610
2580.38134,0.94636
2578.45281,0.94664
2576.52427,0.94697
2574.59573,0.94717
2572.66720,0.94717
2570.73866,0.94718
2568.81013,0.94724
2566.88159,0.94723
2564.95305,0.94715
2563.02452,0.94715
2561.09598,0.94719
2559.16745,0.94713
2557.23891,0.94701
2555.31037,0.94698
2553.38184,0.94707
2551.45330,0.94715
2549.52476,0.94719
2547.59623,0.94735
2545.66769,0.94761
2543.73916,0.94778
2541.81062,0.94779
2539.88208,0.94769
2537.95355,0.94763
2536.02501,0.94766
2534.09648,0.94764
2532.16794,0.94752
2530.23940,0.94744
2528.31087,0.94748
2526.38233,0.94756
2524.45380,0.94767
2522.52526,0.94779
2520.59672,0.94789
2518.66819,0.94803
2516.73965,0.94826
2514.81111,0.94850
2512.88258,0.94871
2510.95404,0.94891
2509.02551,0.94911
2507.09697,0.94928
2505.16843,0.94936
2503.23990,0.94935
2501.31136,0.94937
2499.38283,0.94956
2497.45429,0.94981
2495.52575,0.94996
2493.59722,0.95000
2491.66868,0.94993
2489.74014,0.94980
2487.81161,0.94973
2485.88307,0.94975
2483.95454,0.94975
2482.02600,0.94971
2480.09746,0.94976
2478.16893,0.94985
2476.24039,0.94991
2474.31186,0.94993
2472.38332,0.94994
2470.45478,0.94996
2468.52625,0.95005
2466.59771,0.95024
2464.66918,0.95040
2462.74064,0.95042
2460.81210,0.95041
2458.88357,0.95044
2456.95503,0.95044
2455.02649,0.95047
2453.09796,0.95061
2451.16942,0.95070
2449.24089,0.95069
2447.31235,0.95074
2445.38381,0.95081
2443.45528,0.95073
2441.52674,0.95052
2439.59821,0.95040
2437.66967,0.95055
2435.74113,0.95079
2433.81260,0.95082
2431.88406,0.95071
2429.95552,0.95059
2428.02699,0.95043
2426.09845,0.95024
2424.16992,0.95012
2422.24138,0.95003
2420.31284,0.94991
2418.38431,0.94982
2416.45577,0.94985
2414.52724,0.94997
2412.59870,0.95008
2410.67016,0.95019
2408.74163,0.95036
2406.81309,0.95060
2404.88456,0.95076
2402.95602,0.95074
2401.02748,0.95065
2399.09895,0.95063
2397.17041,0.95069
2395.24187,0.95079
2393.31334,0.95093
2391.38480,0.95101
2389.45627,0.95091
2387.52773,0.95045
2385.59919,0.94944
2383.67066,0.94768
2381.74212,0.94523
2379.81359,0.94235
2377.88505,0.93912
2375.95651,0.93533
2374.02798,0.93090
2372.09944,0.92586
2370.17090,0.92034
2368.24237,0.91498
2366.31383,0.91022
2364.38530,0.90603
2362.45676,0.90261
2360.52822,0.90072
2358.59969,0.90137
2356.67115,0.90487
2354.74262,0.91041
2352.81408,0.91698
2350.88554,0.92275
2348.95701,0.92538
2347.02847,0.92392
2345.09994,0.91932
2343.17140,0.91537
2341.24286,0.91447
2339.31433,0.91509
2337.38579,0.91590
2335.45725,0.91667
2333.52872,0.91734
2331.60018,0.91797
2329.67165,0.91875
2327.74311,0.91961
2325.81457,0.92079
2323.88604,0.92274
2321.95750,0.92539
2320.02897,0.92818
2318.10043,0.93073
2316.17189,0.93281
2314.24336,0.93438
2312.31482,0.93569
2310.38628,0.93705
2308.45775,0.93863
2306.52921,0.94034
2304.60068,0.94178
2302.67214,0.94278
2300.74360,0.94355
2298.81507,0.94414
2296.88653,0.94452
2294.95800,0.94498
2293.02946,0.94568
2291.10092,0.94638
2289.17239,0.94702
2287.24385,0.94781
2285.31532,0.94868
2283.38678,0.94932
2281.45824,0.94959
2279.52971,0.94967
2277.60117,0.94979
2275.67263,0.94988
2273.74410,0.94991
2271.81556,0.95001
2269.88703,0.95016
2267.95849,0.95024
2266.02995,0.95020
2264.10142,0.95014
2262.17288,0.95022
2260.24435,0.95040
2258.31581,0.95058
2256.38727,0.95075
2254.45874,0.95091
2252.53020,0.95117
2250.60166,0.95142
2248.67313,0.95155
2246.74459,0.95181
2244.81606,0.95227
2242.88752,0.95269
2240.95898,0.95296
2239.03045,0.95306
2237.10191,0.95315
2235.17338,0.95342
2233.24484,0.95375
2231.31630,0.95392
2229.38777,0.95398
2227.45923,0.95408
2225.53070,0.95423
2223.60216,0.95449
2221.67362,0.95487
2219.74509,0.95522
2217.81655,0.95550
2215.88801,0.95571
2213.95948,0.95579
2212.03094,0.95588
2210.10241,0.95615
2208.17387,0.95645
2206.24533,0.95659
2204.31680,0.95656
2202.38826,0.95657
2200.45973,0.95687
2198.53119,0.95718
2196.60265,0.95716
2194.67412,0.95712
2192.74558,0.95736
2190.81704,0.95749
2188.88851,0.95737
2186.95997,0.95750
2185.03144,0.95796
2183.10290,0.95834
2181.17436,0.95872
2179.24583,0.95927
2177.31729,0.95967
2175.38876,0.95965
2173.46022,0.95957
2171.53168,0.95951
2169.60315,0.95923
2167.67461,0.95871
2165.74607,0.95821
2163.81754,0.95805
2161.88900,0.95878
2159.96047,0.96066
2158.03193,0.96258
2156.10339,0.96318
2154.17486,0.96247
2152.24632,0.96128
2150.31779,0.96046
2148.38925,0.96023
2146.46071,0.96010
2144.53218,0.95980
2142.60364,0.95964
2140.67511,0.95970
2138.74657,0.95964
2136.81803,0.95969
2134.88950,0.96018
2132.96096,0.96042
2131.03242,0.95997
2129.10389,0.95941
2127.17535,0.95911
2125.24682,0.95885
2123.31828,0.95855
2121.38974,0.95821
2119.46121,0.95793
2117.53267,0.95775
2115.60414,0.95764
2113.67560,0.95776
2111.74706,0.95806
2109.81853,0.95821
2107.88999,0.95820
2105.96145,0.95810
2104.03292,0.95787
2102.10438,0.95775
2100.17585,0.95781
2098.24731,0.95782
2096.31877,0.95792
2094.39024,0.95816
2092.46170,0.95816
2090.53317,0.95800
2088.60463,0.95806
2086.67609,0.95831
2084.74756,0.95847
2082.81902,0.95839
2080.89049,0.95821
2078.96195,0.95829
2077.03341,0.95863
2075.10488,0.95899
2073.17634,0.95927
2071.24780,0.95944
2069.31927,0.95961
2067.39073,0.95984
2065.46220,0.95988
2063.53366,0.95966
2061.60512,0.95950
2059.67659,0.95950
2057.74805,0.95964
2055.81952,0.95996
2053.89098,0.96008
2051.96244,0.95986
2050.03391,0.96009
2048.10537,0.96080
2046.17683,0.96122
2044.24830,0.96136
2042.31976,0.96144
2040.39123,0.96149
2038.46269,0.96173
2036.53415,0.96214
2034.60562,0.96261
2032.67708,0.96320
2030.74855,0.96368
2028.82001,0.96373
2026.89147,0.96356
2024.96294,0.96369
2023.03440,0.96404
2021.10587,0.96397
2019.17733,0.96340
2017.24879,0.96295
2015.32026,0.96310
2013.39172,0.96344
2011.46318,0.96358
2009.53465,0.96378
2007.60611,0.96423
2005.67758,0.96468
2003.74904,0.96487
2001.82050,0.96468
1999.89197,0.96436
1997.96343,0.96413
1996.03490,0.96387
1994.10636,0.96352
1992.17782,0.96327
1990.24929,0.96311
1988.32075,0.96281
1986.39221,0.96236
1984.46368,0.96173
1982.53514,0.96098
1980.60661,0.96091
1978.67807,0.96200
1976.74953,0.96310
1974.82100,0.96341
1972.89246,0.96341
1970.96393,0.96319
1969.03539,0.96266
1967.10685,0.96217
1965.17832,0.96207
1963.24978,0.96212
1961.32125,0.96208
1959.39271,0.96188
1957.46417,0.96144
1955.53564,0.96083
1953.60710,0.96022
1951.67856,0.95974
1949.75003,0.95950
1947.82149,0.95948
1945.89296,0.95945
1943.96442,0.95922
1942.03588,0.95894
1940.10735,0.95877
1938.17881,0.95850
1936.25028,0.95811
1934.32174,0.95775
1932.39320,0.95746
1930.46467,0.95729
1928.53613,0.95725
1926.60759,0.95722
1924.67906,0.95694
1922.75052,0.95637
1920.82199,0.95602
1918.89345,0.95609
1916.96491,0.95634
1915.03638,0.95672
1913.10784,0.95720
1911.17931,0.95745
1909.25077,0.95747
1907.32223,0.95775
1905.39370,0.95830
1903.46516,0.95870
1901.53663,0.95889
1899.60809,0.95901
1897.67955,0.95903
1895.75102,0.95882
1893.82248,0.95857
1891.89394,0.95853
1889.96541,0.95867
1888.03687,0.95884
1886.10834,0.95896
1884.17980,0.95910
1882.25126,0.95931
1880.32273,0.95954
1878.39419,0.95980
1876.46566,0.96018
1874.53712,0.96057
1872.60858,0.96070
1870.68005,0.96050
1868.75151,0.96023
1866.82297,0.96032
1864.89444,0.96052
1862.96590,0.96056
1861.03737,0.96051
1859.10883,0.96043
1857.18029,0.96032
1855.25176,0.96019
1853.32322,0.96003
1851.39469,0.95980
1849.46615,0.95951
1847.53761,0.95917
1845.60908,0.95881
1843.68054,0.95862
1841.75200,0.95874
1839.82347,0.95889
1837.89493,0.95894
1835.96640,0.95903
1834.03786,0.95922
1832.10932,0.95934
1830.18079,0.95928
1828.25225,0.95917
1826.32372,0.95913
1824.39518,0.95901
1822.46664,0.95885
1820.53811,0.95872
1818.60957,0.95854
1816.68104,0.95814
1814.75250,0.95749
1812.82396,0.95671
1810.89543,0.95608
1808.96689,0.95596
1807.03835,0.95621
1805.10982,0.95641
1803.18128,0.95638
1801.25275,0.95630
1799.32421,0.95639
1797.39567,0.95650
1795.46714,0.95642
1793.53860,0.95613
1791.61007,0.95590
1789.68153,0.95601
1787.75299,0.95608
1785.82446,0.95585
1783.89592,0.95546
1781.96738,0.95509
1780.03885,0.95469
1778.11031,0.95427
1776.18178,0.95385
1774.25324,0.95342
1772.32470,0.95314
1770.39617,0.95336
1768.46763,0.95381
1766.53910,0.95421
1764.61056,0.95446
1762.68202,0.95452
1760.75349,0.95455
1758.82495,0.95455
1756.89642,0.95444
1754.96788,0.95423
1753.03934,0.95385
1751.11081,0.95323
1749.18227,0.95258
1747.25373,0.95230
1745.32520,0.95212
1743.39666,0.95181
1741.46813,0.95135
1739.53959,0.95075
1737.61105,0.95022
1735.68252,0.94974
1733.75398,0.94922
1731.82545,0.94923
1729.89691,0.94970
1727.96837,0.95021
1726.03984,0.95051
1724.11130,0.95063
1722.18276,0.95068
1720.25423,0.95057
1718.32569,0.95010
1716.39716,0.94968
1714.46862,0.95029
1712.54008,0.95109
1710.61155,0.95161
1708.68301,0.95187
1706.75448,0.95207
1704.82594,0.95248
1702.89740,0.95299
1700.96887,0.95349
1699.04033,0.95419
1697.11180,0.95521
1695.18326,0.95655
1693.25472,0.95742
1691.32619,0.95776
1689.39765,0.95787
1687.46911,0.95792
1685.54058,0.95799
1683.61204,0.95793
1681.68351,0.95797
1679.75497,0.95829
1677.82643,0.95865
1675.89790,0.95892
1673.96936,0.95913
1672.04083,0.95923
1670.11229,0.95942
1668.18375,0.95999
1666.25522,0.96040
1664.32668,0.96041
1662.39814,0.96032
1660.46961,0.96038
1658.54107,0.96028
1656.61254,0.95987
1654.68400,0.95922
1652.75546,0.95847
1650.82693,0.95818
1648.89839,0.95792
1646.96986,0.95778
1645.04132,0.95813
1643.11278,0.95835
1641.18425,0.95823
1639.25571,0.95777
1637.32718,0.95685
1635.39864,0.95562
1633.47010,0.95447
1631.54157,0.95274
1629.61303,0.95005
1627.68449,0.94716
1625.75596,0.94576
1623.82742,0.94622
1621.89889,0.94735
1619.97035,0.94732
1618.04181,0.94471
1616.11328,0.93784
1614.18474,0.93092
1612.25621,0.92603
1610.32767,0.92292
1608.39913,0.92274
1606.47060,0.92427
1604.54206,0.92623
1602.61352,0.93067
1600.68499,0.93816
1598.75645,0.94535
1596.82792,0.95003
1594.89938,0.95167
1592.97084,0.94952
1591.04231,0.94319
1589.11377,0.93466
1587.18524,0.92881
1585.25670,0.92788
1583.32816,0.92978
1581.39963,0.93268
1579.47109,0.93579
1577.54256,0.93787
1575.61402,0.93759
1573.68548,0.93695
1571.75695,0.93767
1569.82841,0.94105
1567.89987,0.94635
1565.97134,0.95017
1564.04280,0.95258
1562.11427,0.95382
1560.18573,0.95384
1558.25719,0.95203
1556.32866,0.95100
1554.40012,0.95122
1552.47159,0.95235
1550.54305,0.95490
1548.61451,0.95805
1546.68598,0.96010
1544.75744,0.96109
1542.82890,0.96168
1540.90037,0.96268
1538.97183,0.96432
1537.04330,0.96502
1535.11476,0.96531
1533.18622,0.96575
1531.25769,0.96615
1529.32915,0.96592
1527.40062,0.96495
1525.47208,0.96354
1523.54354,0.96129
1521.61501,0.95388
1519.68647,0.94081
1517.75793,0.92103
1515.82940,0.89771
1513.90086,0.88985
1511.97233,0.89723
1510.04379,0.91014
1508.11525,0.92659
1506.18672,0.94729
1504.25818,0.95456
1502.32965,0.95652
1500.40111,0.95668
1498.47257,0.95336
1496.54404,0.94848
1494.61550,0.94909
1492.68697,0.95357
1490.75843,0.95923
1488.82989,0.96489
1486.90136,0.96851
1484.97282,0.97063
1483.04428,0.97183
1481.11575,0.97218
1479.18721,0.97169
1477.25868,0.97027
1475.33014,0.96777
1473.40160,0.96352
1471.47307,0.95891
1469.54453,0.95679
1467.61600,0.95620
1465.68746,0.95684
1463.75892,0.95851
1461.83039,0.95954
1459.90185,0.95948
1457.97331,0.95790
1456.04478,0.95431
1454.11624,0.95057
1452.18771,0.94557
1450.25917,0.93865
1448.33063,0.93125
1446.40210,0.92852
1444.47356,0.93336
1442.54503,0.94227
1440.61649,0.95056
1438.68795,0.95545
1436.75942,0.95507
1434.83088,0.94829
1432.90235,0.93677
1430.97381,0.91412
1429.04527,0.87677
1427.11674,0.84418
1425.18820,0.83403
1423.25966,0.84784
1421.33113,0.86763
1419.40259,0.87660
1417.47406,0.87173
1415.54552,0.86620
1413.61698,0.86924
1411.68845,0.88206
1409.75991,0.89987
1407.83138,0.91546
1405.90284,0.92818
1403.97430,0.93875
1402.04577,0.94556
1400.11723,0.95007
1398.18869,0.95388
1396.26016,0.95700
1394.33162,0.95965
1392.40309,0.96158
1390.47455,0.96231
1388.54601,0.96183
1386.61748,0.96040
1384.68894,0.95879
1382.76041,0.95697
1380.83187,0.95428
1378.90333,0.95067
1376.97480,0.94577
1375.04626,0.93719
1373.11773,0.92401
1371.18919,0.90967
1369.26065,0.89211
1367.33212,0.86896
1365.40358,0.84107
1363.47504,0.79924
1361.54651,0.73999
1359.61797,0.68484
1357.68944,0.64099
1355.76090,0.61210
1353.83236,0.61280
1351.90383,0.64660
1349.97529,0.70018
1348.04676,0.75325
1346.11822,0.78910
1344.18968,0.80765
1342.26115,0.82262
1340.33261,0.84991
1338.40407,0.88694
1336.47554,0.91245
1334.54700,0.92505
1332.61847,0.93129
1330.68993,0.93336
1328.76139,0.93134
1326.83286,0.92428
1324.90432,0.91236
1322.97579,0.89887
1321.04725,0.88718
1319.11871,0.87858
1317.19018,0.87378
1315.26164,0.86857
1313.33311,0.85543
1311.40457,0.83357
1309.47603,0.80821
1307.54750,0.78125
1305.61896,0.75215
1303.69042,0.71985
1301.76189,0.68290
1299.83335,0.64354
1297.90482,0.60760
1295.97628,0.57929
1294.04774,0.55927
1292.11921,0.55110
1290.19067,0.56368
1288.26214,0.59995
1286.33360,0.64790
1284.40506,0.69145
1282.47653,0.72457
1280.54799,0.74867
1278.61945,0.76494
1276.69092,0.77090
1274.76238,0.76214
1272.83385,0.73809
1270.90531,0.70627
1268.97677,0.67862
1267.04824,0.65954
1265.11970,0.64409
1263.19117,0.62910
1261.26263,0.62040
1259.33409,0.62872
1257.40556,0.65753
1255.47702,0.69866
1253.54849,0.73973
1251.61995,0.77136
1249.69141,0.78906
1247.76288,0.79088
1245.83434,0.77872
1243.90580,0.76234
1241.97727,0.75540
1240.04873,0.76317
1238.12020,0.77954
1236.19166,0.79715
1234.26312,0.81453
1232.33459,0.83233
1230.40605,0.84853
1228.47752,0.85981
1226.54898,0.86486
1224.62044,0.86507
1222.69191,0.86433
1220.76337,0.86827
1218.83483,0.87912
1216.90630,0.89222
1214.97776,0.90196
1213.04923,0.90680
1211.12069,0.90761
1209.19215,0.90690
1207.26362,0.90750
1205.33508,0.90932
1203.40655,0.90939
1201.47801,0.90542
1199.54947,0.89798
1197.62094,0.88902
1195.69240,0.87882
1193.76387,0.86490
1191.83533,0.84485
1189.90679,0.81932
1187.97826,0.79179
1186.04972,0.76724
1184.12118,0.75092
1182.19265,0.74552
1180.26411,0.74913
1178.33558,0.75661
1176.40704,0.76261
1174.47850,0.76330
1172.54997,0.75664
1170.62143,0.74362
1168.69290,0.72909
1166.76436,0.71926
1164.83582,0.71665
1162.90729,0.71910
1160.97875,0.72350
1159.05021,0.72779
1157.12168,0.73057
1155.19314,0.73181
1153.26461,0.73229
1151.33607,0.73086
1149.40753,0.72532
1147.47900,0.71612
1145.55046,0.70588
1143.62193,0.69498
1141.69339,0.67949
1139.76485,0.65466
1137.83632,0.61967
1135.90778,0.57812
1133.97924,0.53637
1132.05071,0.50133
1130.12217,0.47740
1128.19364,0.46504
1126.26510,0.46191
1124.33656,0.46503
1122.40803,0.47193
1120.47949,0.48090
1118.55096,0.49163
1116.62242,0.50504
1114.69388,0.52148
1112.76535,0.53872
1110.83681,0.55323
1108.90828,0.56402
1106.97974,0.57551
1105.05120,0.59392
1103.12267,0.61789
1101.19413,0.63824
1099.26559,0.64933
1097.33706,0.65460
1095.40852,0.66046
1093.47999,0.67077
1091.55145,0.68720
1089.62291,0.70842
1087.69438,0.72990
1085.76584,0.74830
1083.83731,0.76348
1081.90877,0.77649
1079.98023,0.78812
1078.05170,0.79875
1076.12316,0.80844
1074.19462,0.81703
1072.26609,0.82436
1070.33755,0.83027
1068.40902,0.83440
1066.48048,0.83619
1064.55194,0.83591
1062.62341,0.83544
1060.69487,0.83704
1058.76634,0.84121
1056.83780,0.84625
1054.90926,0.85053
1052.98073,0.85462
1051.05219,0.85974
1049.12366,0.86552
1047.19512,0.87069
1045.26658,0.87470
1043.33805,0.87731
1041.40951,0.87735
1039.48097,0.87194
1037.55244,0.85795
1035.62390,0.83688
1033.69537,0.81817
1031.76683,0.81408
1029.83829,0.82780
1027.90976,0.84956
1025.98122,0.86773
1024.05269,0.87875
1022.12415,0.88471
1020.19561,0.88775
1018.26708,0.88809
1016.33854,0.88418
1014.41000,0.87350
1012.48147,0.85356
1010.55293,0.82254
1008.62440,0.77968
1006.69586,0.72635
1004.76732,0.66675
1002.83879,0.60784
1000.91025,0.56024
998.98172,0.53591
997.05318,0.53963
995.12464,0.56530
993.19611,0.60223
991.26757,0.64133
989.33904,0.67730
987.41050,0.70881
985.48196,0.73701
983.55343,0.76268
981.62489,0.78470
979.69635,0.80162
977.76782,0.81365
975.83928,0.82199
973.91075,0.82651
971.98221,0.82517
970.05367,0.81479
968.12514,0.79180
966.19660,0.75760
964.26807,0.72515
962.33953,0.71020
960.41099,0.71509
958.48246,0.73044
956.55392,0.74708
954.62538,0.75979
952.69685,0.76932
950.76831,0.78089
948.83978,0.79573
946.91124,0.81015
944.98270,0.82206
943.05417,0.83310
941.12563,0.84465
939.19710,0.85509
937.26856,0.86201
935.34002,0.86435
933.41149,0.86112
931.48295,0.84982
929.55442,0.82755
927.62588,0.79514
925.69734,0.76099
923.76881,0.73812
921.84027,0.73387
919.91173,0.74495
917.98320,0.76332
916.05466,0.78290
914.12613,0.80077
912.19759,0.81640
910.26905,0.83092
908.34052,0.84477
906.41198,0.85616
904.48345,0.86259
902.55491,0.86234
900.62637,0.85373
898.69784,0.83492
896.76930,0.80640
894.84076,0.77235
892.91223,0.73787
890.98369,0.70796
889.05516,0.68954
887.12662,0.68862
885.19808,0.70487
883.26955,0.73194
881.34101,0.76133
879.41248,0.78510
877.48394,0.79730
875.55540,0.79827
873.62687,0.79787
871.69833,0.80634
869.76980,0.82252
867.84126,0.83935
865.91272,0.85433
863.98419,0.86742
862.05565,0.87727
860.12711,0.88226
858.19858,0.88079
856.27004,0.86918
854.34151,0.84170
852.41297,0.79801
850.48443,0.75092
848.55590,0.71888
846.62736,0.70943
844.69883,0.71275
842.77029,0.70376
840.84175,0.67265
838.91322,0.65880
836.98468,0.69845
835.05614,0.76434
833.12761,0.81320
831.19907,0.83691
829.27054,0.84716
827.34200,0.85534
825.41346,0.86556
823.48493,0.87485
821.55639,0.88105
819.62786,0.88526
817.69932,0.88866
815.77078,0.89151
813.84225,0.89382
811.91371,0.89548
809.98517,0.89621
808.05664,0.89550
806.12810,0.89326
804.19957,0.89096
802.27103,0.89117
800.34249,0.89485
798.41396,0.89972
796.48542,0.90262
794.55689,0.90045
792.62835,0.88753
790.69981,0.86032
788.77128,0.82943
786.84274,0.81681
784.91421,0.83075
782.98567,0.85514
781.05713,0.87123
779.12860,0.87582
777.20006,0.87480
775.27152,0.87129
773.34299,0.86256
771.41445,0.84381
769.48592,0.81210
767.55738,0.76897
765.62884,0.72173
763.70031,0.68283
761.77177,0.66725
759.84324,0.68336
757.91470,0.72131
755.98616,0.75814
754.05763,0.77799
752.12909,0.78243
750.20055,0.78234
748.27202,0.78560
746.34348,0.79005
744.41495,0.78372
742.48641,0.75609
740.55787,0.71552
738.62934,0.68720
736.70080,0.68630
734.77227,0.70919
732.84373,0.74701
730.91519,0.78300
728.98666,0.79369
727.05812,0.77227
725.12959,0.73709
723.20105,0.70053
721.27251,0.64908
719.34398,0.60160
717.41544,0.61748
715.48690,0.69051
713.55837,0.75977
711.62983,0.79939
709.70130,0.81980
707.77276,0.83129
705.84422,0.83875
703.91569,0.84491
701.98715,0.85109
700.05862,0.85728
698.13008,0.86330
696.20154,0.86910
694.27301,0.87448
692.34447,0.87868
690.41593,0.87783
688.48740,0.86391
686.55886,0.83882
684.63033,0.82470
682.70179,0.83416
680.77325,0.84725
678.84472,0.83280
676.91618,0.78847
674.98765,0.75335
673.05911,0.75514
671.13057,0.77572
669.20204,0.80303
667.27350,0.83908
665.34497,0.85964
663.41643,0.86810
661.48789,0.87397
659.55936,0.87857
657.63082,0.88135
655.70228,0.87961
653.77375,0.86741
651.84521,0.84077
649.91668,0.80881
647.98814,0.79339
646.05960,0.80667
644.13107,0.83541
642.20253,0.85911
640.27400,0.87179
638.34546,0.87771
636.41692,0.87907
634.48839,0.87453
632.55985,0.86446
630.63131,0.85539
628.70278,0.85485
626.77424,0.86284
624.84571,0.87307
622.91717,0.88077
620.98863,0.88533
619.06010,0.88792
617.13156,0.89009
615.20303,0.89230
613.27449,0.89381
611.34595,0.89435
609.41742,0.89369
607.48888,0.89177
605.56035,0.89058
603.63181,0.89201
601.70327,0.89514
599.77474,0.89806
597.84620,0.90007
595.91766,0.90136
593.98913,0.90208
592.06059,0.90256
590.13206,0.90323
588.20352,0.90403
586.27498,0.90475
584.34645,0.90540
582.41791,0.90619
580.48938,0.90686
578.56084,0.90662
576.63230,0.90532
574.70377,0.90362
572.77523,0.90281
570.84669,0.90355
568.91816,0.90541
566.98962,0.90735
565.06109,0.90832
563.13255,0.90679
561.20401,0.90057
559.27548,0.88747
557.34694,0.86497
555.41841,0.83440
553.48987,0.80727
551.56133,0.79497
549.63280,0.79412
547.70426,0.79132
545.77573,0.77731
543.84719,0.75995
541.91865,0.75900
539.99012,0.77950
538.06158,0.80339
536.13304,0.81229
534.20451,0.80429
532.27597,0.78380
530.34744,0.75158
528.41890,0.71343
526.49036,0.68952
524.56183,0.70134
522.63329,0.73735
520.70476,0.77131
518.77622,0.78531
516.84768,0.76714
514.91915,0.72641
512.99061,0.69084
511.06207,0.68299
509.13354,0.70646
507.20500,0.74344
505.27647,0.77174
503.34793,0.78473
501.41939,0.78814
499.49086,0.79110
497.56232,0.80199
495.63379,0.81986
493.70525,0.83427
491.77671,0.83878
489.84818,0.84035
487.91964,0.84684
485.99110,0.85499
484.06257,0.85652
482.13403,0.84451
480.20550,0.81766
478.27696,0.78409
476.34842,0.76118
474.41989,0.76227
472.49135,0.78771
470.56282,0.81859
468.63428,0.83846
466.70574,0.85030
464.77721,0.85813
462.84867,0.86443
460.92014,0.86957
458.99160,0.87275
457.06306,0.87450
455.13453,0.87565
453.20599,0.87646
451.27745,0.87598
449.34892,0.87248
447.42038,0.86437
445.49185,0.85018
443.56331,0.83035
441.63477,0.81594
439.70624,0.82015
437.77770,0.83568
435.84917,0.84701
433.92063,0.84321
431.99209,0.82633
430.06356,0.81045
428.13502,0.81140
426.20648,0.82843
424.27795,0.84658
422.34941,0.85433
420.42088,0.85408
418.49234,0.85395
416.56380,0.85635
414.63527,0.85540
412.70673,0.85108
410.77820,0.84869
408.84966,0.85365
406.92112,0.86367
404.99259,0.87222
403.06405,0.87644
401.13552,0.87734
399.20698,0.87799
