3997.85540,0.97962
3995.92686,0.97951
3993.99833,0.97933
3992.06979,0.97913
3990.14125,0.97898
3988.21272,0.97879
3986.28418,0.97848
3984.35565,0.97818
3982.42711,0.97814
3980.49857,0.97836
3978.57004,0.97859
3976.64150,0.97868
3974.71297,0.97872
3972.78443,0.97873
3970.85589,0.97867
3968.92736,0.97868
3966.99882,0.97887
3965.07029,0.97915
3963.14175,0.97936
3961.21321,0.97951
3959.28468,0.97968
3957.35614,0.97984
3955.42760,0.97994
3953.49907,0.97997
3951.57053,0.97999
3949.64200,0.97997
3947.71346,0.97999
3945.78492,0.98011
3943.85639,0.98014
3941.92785,0.98013
3939.99932,0.98016
3938.07078,0.98018
3936.14224,0.98014
3934.21371,0.98002
3932.28517,0.97995
3930.35663,0.98007
3928.42810,0.98024
3926.49956,0.98020
3924.57103,0.97998
3922.64249,0.97977
3920.71395,0.97961
3918.78542,0.97948
3916.85688,0.97952
3914.92835,0.97973
3912.99981,0.97992
3911.07127,0.97997
3909.14274,0.97990
3907.21420,0.97960
3905.28566,0.97907
3903.35713,0.97870
3901.42859,0.97879
3899.50006,0.97908
3897.57152,0.97939
3895.64298,0.97961
3893.71445,0.97960
3891.78591,0.97954
3889.85738,0.97975
3887.92884,0.98000
3886.00030,0.98006
3884.07177,0.97997
3882.14323,0.97987
3880.21470,0.97989
3878.28616,0.98002
3876.35762,0.98005
3874.42909,0.97989
3872.50055,0.97961
3870.57201,0.97942
3868.64348,0.97953
3866.71494,0.97969
3864.78641,0.97976
3862.85787,0.97996
3860.92933,0.98020
3859.00080,0.98026
3857.07226,0.98007
3855.14373,0.97957
3853.21519,0.97905
3851.28665,0.97950
3849.35812,0.98012
3847.42958,0.98044
3845.50104,0.98050
3843.57251,0.98031
3841.64397,0.97981
3839.71544,0.97927
3837.78690,0.97924
3835.85836,0.97967
3833.92983,0.97996
3832.00129,0.98004
3830.07276,0.98015
3828.14422,0.98026
3826.21568,0.98029
3824.28715,0.98020
3822.35861,0.97979
3820.43008,0.97930
3818.50154,0.97931
3816.57300,0.97950
3814.64447,0.97979
3812.71593,0.98005
3810.78739,0.98010
3808.85886,0.97991
3806.93032,0.97961
3805.00179,0.97953
3803.07325,0.97954
3801.14471,0.97945
3799.21618,0.97943
3797.28764,0.97947
3795.35911,0.97967
3793.43057,0.98002
3791.50203,0.98021
3789.57350,0.98012
3787.64496,0.97988
3785.71642,0.97980
3783.78789,0.97994
3781.85935,0.98000
3779.93082,0.97986
3778.00228,0.97986
3776.07374,0.98005
3774.14521,0.98012
3772.21667,0.98001
3770.28814,0.97980
3768.35960,0.97967
3766.43106,0.97966
3764.50253,0.97971
3762.57399,0.97978
3760.64546,0.97969
3758.71692,0.97947
3756.78838,0.97938
3754.85985,0.97934
3752.93131,0.97897
3751.00277,0.97823
3749.07424,0.97808
3747.14570,0.97843
3745.21717,0.97870
3743.28863,0.97901
3741.36009,0.97934
3739.43156,0.97952
3737.50302,0.97940
3735.57449,0.97888
3733.64595,0.97866
3731.71741,0.97914
3729.78888,0.97957
3727.86034,0.97960
3725.93180,0.97937
3724.00327,0.97917
3722.07473,0.97913
3720.14620,0.97918
3718.21766,0.97925
3716.28912,0.97924
3714.36059,0.97906
3712.43205,0.97873
3710.50352,0.97874
3708.57498,0.97917
3706.64644,0.97941
3704.71791,0.97938
3702.78937,0.97922
3700.86084,0.97918
3698.93230,0.97931
3697.00376,0.97936
3695.07523,0.97920
3693.14669,0.97884
3691.21815,0.97832
3689.28962,0.97803
3687.36108,0.97824
3685.43255,0.97842
3683.50401,0.97842
3681.57547,0.97822
3679.64694,0.97783
3677.71840,0.97728
3675.78987,0.97667
3673.86133,0.97651
3671.93279,0.97642
3670.00426,0.97608
3668.07572,0.97620
3666.14718,0.97662
3664.21865,0.97671
3662.29011,0.97651
3660.36158,0.97624
3658.43304,0.97581
3656.50450,0.97520
3654.57597,0.97485
3652.64743,0.97463
3650.71890,0.97398
3648.79036,0.97311
3646.86182,0.97302
3644.93329,0.97316
3643.00475,0.97309
3641.07622,0.97289
3639.14768,0.97262
3637.21914,0.97235
3635.29061,0.97203
3633.36207,0.97160
3631.43353,0.97097
3629.50500,0.97003
3627.57646,0.96960
3625.64793,0.96981
3623.71939,0.96977
3621.79085,0.96928
3619.86232,0.96845
3617.93378,0.96772
3616.00525,0.96725
3614.07671,0.96668
3612.14817,0.96630
3610.21964,0.96619
3608.29110,0.96597
3606.36256,0.96574
3604.43403,0.96560
3602.50549,0.96532
3600.57696,0.96484
3598.64842,0.96428
3596.71988,0.96370
3594.79135,0.96320
3592.86281,0.96285
3590.93428,0.96248
3589.00574,0.96181
3587.07720,0.96104
3585.14867,0.96078
3583.22013,0.96068
3581.29160,0.96035
3579.36306,0.95972
3577.43452,0.95898
3575.50599,0.95835
3573.57745,0.95785
3571.64891,0.95736
3569.72038,0.95662
3567.79184,0.95543
3565.86331,0.95451
3563.93477,0.95447
3562.00623,0.95452
3560.07770,0.95421
3558.14916,0.95368
3556.22063,0.95315
3554.29209,0.95259
3552.36355,0.95195
3550.43502,0.95134
3548.50648,0.95077
3546.57794,0.95025
3544.64941,0.94989
3542.72087,0.94958
3540.79234,0.94916
3538.86380,0.94861
3536.93526,0.94803
3535.00673,0.94745
3533.07819,0.94689
3531.14966,0.94638
3529.22112,0.94584
3527.29258,0.94525
3525.36405,0.94470
3523.43551,0.94420
3521.50697,0.94370
3519.57844,0.94320
3517.64990,0.94273
3515.72137,0.94236
3513.79283,0.94196
3511.86429,0.94134
3509.93576,0.94065
3508.00722,0.94013
3506.07869,0.93969
3504.15015,0.93925
3502.22161,0.93889
3500.29308,0.93863
3498.36454,0.93831
3496.43601,0.93777
3494.50747,0.93711
3492.57893,0.93654
3490.65040,0.93605
3488.72186,0.93559
3486.79332,0.93517
3484.86479,0.93470
3482.93625,0.93416
3481.00772,0.93376
3479.07918,0.93347
3477.15064,0.93310
3475.22211,0.93264
3473.29357,0.93214
3471.36504,0.93175
3469.43650,0.93155
3467.50796,0.93132
3465.57943,0.93095
3463.65089,0.93052
3461.72235,0.93006
3459.79382,0.92952
3457.86528,0.92893
3455.93675,0.92846
3454.00821,0.92813
3452.07967,0.92783
3450.15114,0.92749
3448.22260,0.92706
3446.29407,0.92663
3444.36553,0.92637
3442.43699,0.92623
3440.50846,0.92609
3438.57992,0.92603
3436.65139,0.92592
3434.72285,0.92560
3432.79431,0.92522
3430.86578,0.92485
3428.93724,0.92440
3427.00870,0.92392
3425.08017,0.92353
3423.15163,0.92322
3421.22310,0.92298
3419.29456,0.92275
3417.36602,0.92256
3415.43749,0.92255
3413.50895,0.92254
3411.58042,0.92232
3409.65188,0.92203
3407.72334,0.92182
3405.79481,0.92168
3403.86627,0.92158
3401.93773,0.92143
3400.00920,0.92119
3398.08066,0.92094
3396.15213,0.92078
3394.22359,0.92072
3392.29505,0.92063
3390.36652,0.92037
3388.43798,0.91996
3386.50945,0.91956
3384.58091,0.91935
3382.65237,0.91930
3380.72384,0.91922
3378.79530,0.91908
3376.86677,0.91895
3374.93823,0.91889
3373.00969,0.91891
3371.08116,0.91895
3369.15262,0.91892
3367.22408,0.91881
3365.29555,0.91862
3363.36701,0.91839
3361.43848,0.91819
3359.50994,0.91806
3357.58140,0.91795
3355.65287,0.91784
3353.72433,0.91782
3351.79580,0.91790
3349.86726,0.91787
3347.93872,0.91774
3346.01019,0.91776
3344.08165,0.91794
3342.15311,0.91804
3340.22458,0.91808
3338.29604,0.91804
3336.36751,0.91779
3334.43897,0.91750
3332.51043,0.91740
3330.58190,0.91742
3328.65336,0.91747
3326.72483,0.91752
3324.79629,0.91749
3322.86775,0.91732
3320.93922,0.91708
3319.01068,0.91688
3317.08215,0.91685
3315.15361,0.91697
3313.22507,0.91708
3311.29654,0.91719
3309.36800,0.91730
3307.43946,0.91736
3305.51093,0.91728
3303.58239,0.91692
3301.65386,0.91648
3299.72532,0.91631
3297.79678,0.91646
3295.86825,0.91662
3293.93971,0.91654
3292.01118,0.91622
3290.08264,0.91578
3288.15410,0.91540
3286.22557,0.91513
3284.29703,0.91497
3282.36849,0.91488
3280.43996,0.91483
3278.51142,0.91481
3276.58289,0.91490
3274.65435,0.91502
3272.72581,0.91508
3270.79728,0.91500
3268.86874,0.91466
3266.94021,0.91424
3265.01167,0.91397
3263.08313,0.91375
3261.15460,0.91356
3259.22606,0.91340
3257.29753,0.91328
3255.36899,0.91316
3253.44045,0.91299
3251.51192,0.91277
3249.58338,0.91262
3247.65484,0.91257
3245.72631,0.91238
3243.79777,0.91195
3241.86924,0.91155
3239.94070,0.91126
3238.01216,0.91106
3236.08363,0.91099
3234.15509,0.91085
3232.22656,0.91039
3230.29802,0.90971
3228.36948,0.90902
3226.44095,0.90839
3224.51241,0.90782
3222.58387,0.90739
3220.65534,0.90711
3218.72680,0.90681
3216.79827,0.90641
3214.86973,0.90602
3212.94119,0.90561
3211.01266,0.90518
3209.08412,0.90486
3207.15559,0.90461
3205.22705,0.90428
3203.29851,0.90390
3201.36998,0.90353
3199.44144,0.90318
3197.51290,0.90288
3195.58437,0.90264
3193.65583,0.90249
3191.72730,0.90240
3189.79876,0.90216
3187.87022,0.90166
3185.94169,0.90103
3184.01315,0.90048
3182.08462,0.90014
3180.15608,0.89988
3178.22754,0.89948
3176.29901,0.89895
3174.37047,0.89842
3172.44194,0.89789
3170.51340,0.89735
3168.58486,0.89683
3166.65633,0.89628
3164.72779,0.89570
3162.79925,0.89502
3160.87072,0.89422
3158.94218,0.89345
3157.01365,0.89290
3155.08511,0.89257
3153.15657,0.89223
3151.22804,0.89157
3149.29950,0.89058
3147.37097,0.88956
3145.44243,0.88865
3143.51389,0.88785
3141.58536,0.88713
3139.65682,0.88628
3137.72828,0.88505
3135.79975,0.88354
3133.87121,0.88211
3131.94268,0.88086
3130.01414,0.87957
3128.08560,0.87802
3126.15707,0.87635
3124.22853,0.87478
3122.30000,0.87330
3120.37146,0.87178
3118.44292,0.87016
3116.51439,0.86843
3114.58585,0.86644
3112.65732,0.86428
3110.72878,0.86233
3108.80024,0.86054
3106.87171,0.85861
3104.94317,0.85691
3103.01463,0.85599
3101.08610,0.85576
3099.15756,0.85563
3097.22903,0.85541
3095.30049,0.85542
3093.37195,0.85574
3091.44342,0.85613
3089.51488,0.85632
3087.58635,0.85618
3085.65781,0.85564
3083.72927,0.85456
3081.80074,0.85303
3079.87220,0.85136
3077.94366,0.84962
3076.01513,0.84763
3074.08659,0.84539
3072.15806,0.84314
3070.22952,0.84116
3068.30098,0.83948
3066.37245,0.83778
3064.44391,0.83585
3062.51538,0.83379
3060.58684,0.83182
3058.65830,0.83017
3056.72977,0.82902
3054.80123,0.82831
3052.87270,0.82778
3050.94416,0.82710
3049.01562,0.82604
3047.08709,0.82446
3045.15855,0.82235
3043.23001,0.81984
3041.30148,0.81736
3039.37294,0.81554
3037.44441,0.81474
3035.51587,0.81473
3033.58733,0.81502
3031.65880,0.81545
3029.73026,0.81596
3027.80173,0.81639
3025.87319,0.81685
3023.94465,0.81764
3022.01612,0.81862
3020.08758,0.81920
3018.15904,0.81901
3016.23051,0.81859
3014.30197,0.81885
3012.37344,0.81961
3010.44490,0.82007
3008.51636,0.82013
3006.58783,0.82000
3004.65929,0.81974
3002.73076,0.81938
3000.80222,0.81886
2998.87368,0.81822
2996.94515,0.81744
2995.01661,0.81637
2993.08808,0.81513
2991.15954,0.81386
2989.23100,0.81254
2987.30247,0.81114
2985.37393,0.80975
2983.44539,0.80833
2981.51686,0.80681
2979.58832,0.80518
2977.65979,0.80344
2975.73125,0.80165
2973.80271,0.79990
2971.87418,0.79812
2969.94564,0.79617
2968.01711,0.79408
2966.08857,0.79197
2964.16003,0.78994
2962.23150,0.78801
2960.30296,0.78615
2958.37442,0.78433
2956.44589,0.78255
2954.51735,0.78079
2952.58882,0.77901
2950.66028,0.77708
2948.73174,0.77502
2946.80321,0.77290
2944.87467,0.77065
2942.94614,0.76801
2941.01760,0.76510
2939.08906,0.76267
2937.16053,0.76089
2935.23199,0.75929
2933.30346,0.75807
2931.37492,0.75763
2929.44638,0.75753
2927.51785,0.75722
2925.58931,0.75663
2923.66077,0.75581
2921.73224,0.75488
2919.80370,0.75401
2917.87517,0.75324
2915.94663,0.75239
2914.01809,0.75130
2912.08956,0.75010
2910.16102,0.74906
2908.23249,0.74819
2906.30395,0.74730
2904.37541,0.74629
2902.44688,0.74519
2900.51834,0.74404
2898.58980,0.74289
2896.66127,0.74178
2894.73273,0.74067
2892.80420,0.73957
2890.87566,0.73851
2888.94712,0.73754
2887.01859,0.73661
2885.09005,0.73570
2883.16152,0.73478
2881.23298,0.73384
2879.30444,0.73296
2877.37591,0.73223
2875.44737,0.73164
2873.51883,0.73111
2871.59030,0.73067
2869.66176,0.73033
2867.73323,0.73002
2865.80469,0.72969
2863.87615,0.72929
2861.94762,0.72884
2860.01908,0.72843
2858.09055,0.72812
2856.16201,0.72791
2854.23347,0.72784
2852.30494,0.72793
2850.37640,0.72806
2848.44787,0.72805
2846.51933,0.72792
2844.59079,0.72783
2842.66226,0.72783
2840.73372,0.72791
2838.80518,0.72808
2836.87665,0.72833
2834.94811,0.72868
2833.01958,0.72915
2831.09104,0.72977
2829.16250,0.73050
2827.23397,0.73122
2825.30543,0.73179
2823.37690,0.73219
2821.44836,0.73253
2819.51982,0.73308
2817.59129,0.73389
2815.66275,0.73475
2813.73421,0.73546
2811.80568,0.73597
2809.87714,0.73637
2807.94861,0.73675
2806.02007,0.73711
2804.09153,0.73745
2802.16300,0.73782
2800.23446,0.73829
2798.30593,0.73888
2796.37739,0.73961
2794.44885,0.74038
2792.52032,0.74111
2790.59178,0.74185
2788.66325,0.74275
2786.73471,0.74380
2784.80617,0.74495
2782.87764,0.74611
2780.94910,0.74721
2779.02056,0.74828
2777.09203,0.74936
2775.16349,0.75047
2773.23496,0.75164
2771.30642,0.75285
2769.37788,0.75401
2767.44935,0.75517
2765.52081,0.75636
2763.59228,0.75755
2761.66374,0.75863
2759.73520,0.75954
2757.80667,0.76039
2755.87813,0.76125
2753.94959,0.76209
2752.02106,0.76285
2750.09252,0.76353
2748.16399,0.76402
2746.23545,0.76425
2744.30691,0.76430
2742.37838,0.76435
2740.44984,0.76453
2738.52131,0.76483
2736.59277,0.76510
2734.66423,0.76529
2732.73570,0.76554
2730.80716,0.76599
2728.87863,0.76676
2726.95009,0.76772
2725.02155,0.76856
2723.09302,0.76921
2721.16448,0.76986
2719.23594,0.77062
2717.30741,0.77148
2715.37887,0.77233
2713.45034,0.77311
2711.52180,0.77377
2709.59326,0.77428
2707.66473,0.77465
2705.73619,0.77490
2703.80766,0.77509
2701.87912,0.77526
2699.95058,0.77537
2698.02205,0.77535
2696.09351,0.77521
2694.16497,0.77502
2692.23644,0.77488
2690.30790,0.77481
2688.37937,0.77469
2686.45083,0.77445
2684.52229,0.77419
2682.59376,0.77398
2680.66522,0.77376
2678.73669,0.77346
2676.80815,0.77309
2674.87961,0.77264
2672.95108,0.77207
2671.02254,0.77145
2669.09401,0.77085
2667.16547,0.77031
2665.23693,0.76987
2663.30840,0.76953
2661.37986,0.76920
2659.45132,0.76885
2657.52279,0.76853
2655.59425,0.76825
2653.66572,0.76792
2651.73718,0.76749
2649.80864,0.76695
2647.88011,0.76633
2645.95157,0.76565
2644.02304,0.76493
2642.09450,0.76417
2640.16596,0.76338
2638.23743,0.76258
2636.30889,0.76171
2634.38035,0.76069
2632.45182,0.75950
2630.52328,0.75812
2628.59475,0.75652
2626.66621,0.75469
2624.73767,0.75262
2622.80914,0.75032
2620.88060,0.74780
2618.95207,0.74511
2617.02353,0.74248
2615.09499,0.74007
2613.16646,0.73793
2611.23792,0.73621
2609.30939,0.73511
2607.38085,0.73460
2605.45231,0.73464
2603.52378,0.73526
2601.59524,0.73644
2599.66670,0.73796
2597.73817,0.73961
2595.80963,0.74128
2593.88110,0.74304
2591.95256,0.74491
2590.02402,0.74682
2588.09549,0.74873
2586.16695,0.75071
2584.23842,0.75284
2582.30988,0.75504
2580.38134,0.75717
2578.45281,0.75928
2576.52427,0.76142
2574.59573,0.76360
2572.66720,0.76579
2570.73866,0.76793
2568.81013,0.76999
2566.88159,0.77202
2564.95305,0.77404
2563.02452,0.77600
2561.09598,0.77791
2559.16745,0.77990
2557.23891,0.78191
2555.31037,0.78381
2553.38184,0.78555
2551.45330,0.78720
2549.52476,0.78882
2547.59623,0.79040
2545.66769,0.79190
2543.73916,0.79345
2541.81062,0.79507
2539.88208,0.79671
2537.95355,0.79836
2536.02501,0.80007
2534.09648,0.80186
2532.16794,0.80364
2530.23940,0.80534
2528.31087,0.80701
2526.38233,0.80871
2524.45380,0.81045
2522.52526,0.81212
2520.59672,0.81361
2518.66819,0.81499
2516.73965,0.81632
2514.81111,0.81768
2512.88258,0.81911
2510.95404,0.82051
2509.02551,0.82180
2507.09697,0.82302
2505.16843,0.82425
2503.23990,0.82551
2501.31136,0.82679
2499.38283,0.82804
2497.45429,0.82911
2495.52575,0.82996
2493.59722,0.83065
2491.66868,0.83131
2489.74014,0.83203
2487.81161,0.83280
2485.88307,0.83365
2483.95454,0.83468
2482.02600,0.83588
2480.09746,0.83709
2478.16893,0.83831
2476.24039,0.83954
2474.31186,0.84072
2472.38332,0.84182
2470.45478,0.84291
2468.52625,0.84400
2466.59771,0.84503
2464.66918,0.84598
2462.74064,0.84692
2460.81210,0.84784
2458.88357,0.84871
2456.95503,0.84957
2455.02649,0.85051
2453.09796,0.85154
2451.16942,0.85250
2449.24089,0.85334
2447.31235,0.85408
2445.38381,0.85477
2443.45528,0.85549
2441.52674,0.85628
2439.59821,0.85716
2437.66967,0.85805
2435.74113,0.85892
2433.81260,0.85971
2431.88406,0.86031
2429.95552,0.86082
2428.02699,0.86141
2426.09845,0.86206
2424.16992,0.86270
2422.24138,0.86333
2420.31284,0.86396
2418.38431,0.86455
2416.45577,0.86510
2414.52724,0.86565
2412.59870,0.86617
2410.67016,0.86665
2408.74163,0.86724
2406.81309,0.86788
2404.88456,0.86837
2402.95602,0.86879
2401.02748,0.86931
2399.09895,0.86983
2397.17041,0.87018
2395.24187,0.87037
2393.31334,0.87055
2391.38480,0.87080
2389.45627,0.87105
2387.52773,0.87127
2385.59919,0.87152
2383.67066,0.87185
2381.74212,0.87222
2379.81359,0.87256
2377.88505,0.87290
2375.95651,0.87326
2374.02798,0.87354
2372.09944,0.87364
2370.17090,0.87355
2368.24237,0.87333
2366.31383,0.87304
2364.38530,0.87273
2362.45676,0.87254
2360.52822,0.87248
2358.59969,0.87284
2356.67115,0.87375
2354.74262,0.87464
2352.81408,0.87517
2350.88554,0.87551
2348.95701,0.87578
2347.02847,0.87592
2345.09994,0.87576
2343.17140,0.87546
2341.24286,0.87537
2339.31433,0.87545
2337.38579,0.87527
2335.45725,0.87473
2333.52872,0.87433
2331.60018,0.87423
2329.67165,0.87400
2327.74311,0.87343
2325.81457,0.87285
2323.88604,0.87273
2321.95750,0.87320
2320.02897,0.87393
2318.10043,0.87458
2316.17189,0.87509
2314.24336,0.87557
2312.31482,0.87612
2310.38628,0.87664
2308.45775,0.87691
2306.52921,0.87704
2304.60068,0.87741
2302.67214,0.87804
2300.74360,0.87855
2298.81507,0.87882
2296.88653,0.87911
2294.95800,0.87957
2293.02946,0.88001
2291.10092,0.88035
2289.17239,0.88067
2287.24385,0.88099
2285.31532,0.88138
2283.38678,0.88194
2281.45824,0.88268
2279.52971,0.88348
2277.60117,0.88411
2275.67263,0.88446
2273.74410,0.88467
2271.81556,0.88490
2269.88703,0.88519
2267.95849,0.88556
2266.02995,0.88594
2264.10142,0.88615
2262.17288,0.88618
2260.24435,0.88631
2258.31581,0.88663
2256.38727,0.88696
2254.45874,0.88724
2252.53020,0.88741
2250.60166,0.88753
2248.67313,0.88773
2246.74459,0.88802
2244.81606,0.88839
2242.88752,0.88893
2240.95898,0.88958
2239.03045,0.89009
2237.10191,0.89044
2235.17338,0.89073
2233.24484,0.89101
2231.31630,0.89125
2229.38777,0.89139
2227.45923,0.89153
2225.53070,0.89186
2223.60216,0.89231
2221.67362,0.89281
2219.74509,0.89353
2217.81655,0.89448
2215.88801,0.89530
2213.95948,0.89586
2212.03094,0.89643
2210.10241,0.89711
2208.17387,0.89770
2206.24533,0.89825
2204.31680,0.89882
2202.38826,0.89933
2200.45973,0.89972
2198.53119,0.90007
2196.60265,0.90038
2194.67412,0.90058
2192.74558,0.90079
2190.81704,0.90129
2188.88851,0.90192
2186.95997,0.90245
2185.03144,0.90303
2183.10290,0.90365
2181.17436,0.90390
2179.24583,0.90391
2177.31729,0.90420
2175.38876,0.90471
2173.46022,0.90498
2171.53168,0.90493
2169.60315,0.90484
2167.67461,0.90511
2165.74607,0.90574
2163.81754,0.90637
2161.88900,0.90739
2159.96047,0.90913
2158.03193,0.91030
2156.10339,0.90992
2154.17486,0.90887
2152.24632,0.90802
2150.31779,0.90747
2148.38925,0.90717
2146.46071,0.90708
2144.53218,0.90694
2142.60364,0.90660
2140.67511,0.90601
2138.74657,0.90524
2136.81803,0.90471
2134.88950,0.90441
2132.96096,0.90383
2131.03242,0.90291
2129.10389,0.90215
2127.17535,0.90156
2125.24682,0.90084
2123.31828,0.90010
2121.38974,0.89948
2119.46121,0.89882
2117.53267,0.89805
2115.60414,0.89742
2113.67560,0.89711
2111.74706,0.89707
2109.81853,0.89708
2107.88999,0.89685
2105.96145,0.89639
2104.03292,0.89594
2102.10438,0.89557
2100.17585,0.89523
2098.24731,0.89495
2096.31877,0.89465
2094.39024,0.89391
2092.46170,0.89261
2090.53317,0.89120
2088.60463,0.89004
2086.67609,0.88926
2084.74756,0.88890
2082.81902,0.88883
2080.89049,0.88879
2078.96195,0.88885
2077.03341,0.88917
2075.10488,0.88952
2073.17634,0.88966
2071.24780,0.88984
2069.31927,0.89024
2067.39073,0.89057
2065.46220,0.89088
2063.53366,0.89151
2061.60512,0.89238
2059.67659,0.89296
2057.74805,0.89318
2055.81952,0.89359
2053.89098,0.89424
2051.96244,0.89521
2050.03391,0.89687
2048.10537,0.89857
2046.17683,0.89957
2044.24830,0.90048
2042.31976,0.90174
2040.39123,0.90291
2038.46269,0.90391
2036.53415,0.90509
2034.60562,0.90631
2032.67708,0.90732
2030.74855,0.90818
2028.82001,0.90890
2026.89147,0.90943
2024.96294,0.91018
2023.03440,0.91114
2021.10587,0.91186
2019.17733,0.91217
2017.24879,0.91197
2015.32026,0.91127
2013.39172,0.91062
2011.46318,0.91034
2009.53465,0.91009
2007.60611,0.90977
2005.67758,0.90963
2003.74904,0.90960
2001.82050,0.90951
1999.89197,0.90948
1997.96343,0.90974
1996.03490,0.91016
1994.10636,0.91044
1992.17782,0.91063
1990.24929,0.91067
1988.32075,0.91030
1986.39221,0.90974
1984.46368,0.90935
1982.53514,0.90909
1980.60661,0.90946
1978.67807,0.91105
1976.74953,0.91273
1974.82100,0.91324
1972.89246,0.91267
1970.96393,0.91159
1969.03539,0.91042
1967.10685,0.90953
1965.17832,0.90946
1963.24978,0.91019
1961.32125,0.91121
1959.39271,0.91181
1957.46417,0.91156
1955.53564,0.91082
1953.60710,0.91029
1951.67856,0.91025
1949.75003,0.91023
1947.82149,0.90987
1945.89296,0.90937
1943.96442,0.90900
1942.03588,0.90868
1940.10735,0.90840
1938.17881,0.90820
1936.25028,0.90805
1934.32174,0.90797
1932.39320,0.90766
1930.46467,0.90694
1928.53613,0.90604
1926.60759,0.90539
1924.67906,0.90504
1922.75052,0.90472
1920.82199,0.90439
1918.89345,0.90381
1916.96491,0.90290
1915.03638,0.90205
1913.10784,0.90143
1911.17931,0.90095
1909.25077,0.90062
1907.32223,0.90050
1905.39370,0.90039
1903.46516,0.90001
1901.53663,0.89939
1899.60809,0.89871
1897.67955,0.89814
1895.75102,0.89781
1893.82248,0.89783
1891.89394,0.89816
1889.96541,0.89866
1888.03687,0.89912
1886.10834,0.89929
1884.17980,0.89913
1882.25126,0.89878
1880.32273,0.89834
1878.39419,0.89777
1876.46566,0.89702
1874.53712,0.89618
1872.60858,0.89536
1870.68005,0.89431
1868.75151,0.89277
1866.82297,0.89154
1864.89444,0.89130
1862.96590,0.89175
1861.03737,0.89246
1859.10883,0.89305
1857.18029,0.89335
1855.25176,0.89321
1853.32322,0.89245
1851.39469,0.89100
1849.46615,0.88903
1847.53761,0.88709
1845.60908,0.88587
1843.68054,0.88566
1841.75200,0.88605
1839.82347,0.88640
1837.89493,0.88643
1835.96640,0.88610
1834.03786,0.88554
1832.10932,0.88464
1830.18079,0.88292
1828.25225,0.88061
1826.32372,0.87790
1824.39518,0.87395
1822.46664,0.87027
1820.53811,0.86983
1818.60957,0.87310
1816.68104,0.87737
1814.75250,0.87998
1812.82396,0.88107
1810.89543,0.88143
1808.96689,0.88128
1807.03835,0.88077
1805.10982,0.87997
1803.18128,0.87902
1801.25275,0.87827
1799.32421,0.87800
1797.39567,0.87800
1795.46714,0.87796
1793.53860,0.87772
1791.61007,0.87730
1789.68153,0.87696
1787.75299,0.87660
1785.82446,0.87602
1783.89592,0.87534
1781.96738,0.87470
1780.03885,0.87414
1778.11031,0.87362
1776.18178,0.87304
1774.25324,0.87225
1772.32470,0.87130
1770.39617,0.87062
1768.46763,0.87028
1766.53910,0.87011
1764.61056,0.86994
1762.68202,0.86955
1760.75349,0.86890
1758.82495,0.86825
1756.89642,0.86765
1754.96788,0.86711
1753.03934,0.86659
1751.11081,0.86585
1749.18227,0.86510
1747.25373,0.86477
1745.32520,0.86464
1743.39666,0.86446
1741.46813,0.86414
1739.53959,0.86372
1737.61105,0.86332
1735.68252,0.86288
1733.75398,0.86218
1731.82545,0.86174
1729.89691,0.86172
1727.96837,0.86174
1726.03984,0.86167
1724.11130,0.86142
1722.18276,0.86110
1720.25423,0.86075
1718.32569,0.86020
1716.39716,0.85962
1714.46862,0.85953
1712.54008,0.85962
1710.61155,0.85963
1708.68301,0.85955
1706.75448,0.85932
1704.82594,0.85901
1702.89740,0.85877
1700.96887,0.85845
1699.04033,0.85805
1697.11180,0.85770
1695.18326,0.85738
1693.25472,0.85715
1691.32619,0.85700
1689.39765,0.85684
1687.46911,0.85675
1685.54058,0.85683
1683.61204,0.85711
1681.68351,0.85735
1679.75497,0.85744
1677.82643,0.85752
1675.89790,0.85765
1673.96936,0.85766
1672.04083,0.85728
1670.11229,0.85630
1668.18375,0.85523
1666.25522,0.85453
1664.32668,0.85350
1662.39814,0.85131
1660.46961,0.84833
1658.54107,0.84523
1656.61254,0.84192
1654.68400,0.83627
1652.75546,0.82199
1650.82693,0.81115
1648.89839,0.80418
1646.96986,0.79162
1645.04132,0.77948
1643.11278,0.77514
1641.18425,0.77537
1639.25571,0.77908
1637.32718,0.78724
1635.39864,0.80172
1633.47010,0.81303
1631.54157,0.81906
1629.61303,0.82449
1627.68449,0.83033
1625.75596,0.83497
1623.82742,0.83819
1621.89889,0.84019
1619.97035,0.84060
1618.04181,0.83931
1616.11328,0.83565
1614.18474,0.83150
1612.25621,0.82751
1610.32767,0.82271
1608.39913,0.81713
1606.47060,0.81201
1604.54206,0.80874
1602.61352,0.80741
1600.68499,0.80712
1598.75645,0.80707
1596.82792,0.80714
1594.89938,0.80657
1592.97084,0.80437
1591.04231,0.80070
1589.11377,0.79718
1587.18524,0.79612
1585.25670,0.79768
1583.32816,0.79986
1581.39963,0.80081
1579.47109,0.80073
1577.54256,0.80128
1575.61402,0.80392
1573.68548,0.80671
1571.75695,0.80765
1569.82841,0.80551
1567.89987,0.79926
1565.97134,0.78981
1564.04280,0.77739
1562.11427,0.76544
1560.18573,0.74844
1558.25719,0.70857
1556.32866,0.68583
1554.40012,0.68067
1552.47159,0.68170
1550.54305,0.69103
1548.61451,0.70615
1546.68598,0.72106
1544.75744,0.73661
1542.82890,0.75436
1540.90037,0.77553
1538.97183,0.79752
1537.04330,0.80776
1535.11476,0.81531
1533.18622,0.82577
1531.25769,0.83460
1529.32915,0.83965
1527.40062,0.84427
1525.47208,0.84885
1523.54354,0.85239
1521.61501,0.85567
1519.68647,0.85729
1517.75793,0.85600
1515.82940,0.85235
1513.90086,0.84861
1511.97233,0.84566
1510.04379,0.84366
1508.11525,0.84350
1506.18672,0.84632
1504.25818,0.85002
1502.32965,0.85405
1500.40111,0.85950
1498.47257,0.86620
1496.54404,0.87268
1494.61550,0.87648
1492.68697,0.87777
1490.75843,0.87719
1488.82989,0.87200
1486.90136,0.85942
1484.97282,0.84159
1483.04428,0.82393
1481.11575,0.81609
1479.18721,0.82313
1477.25868,0.83826
1475.33014,0.85368
1473.40160,0.86640
1471.47307,0.87495
1469.54453,0.87844
1467.61600,0.87972
1465.68746,0.88161
1463.75892,0.88496
1461.83039,0.88748
1459.90185,0.88842
1457.97331,0.88699
1456.04478,0.87977
1454.11624,0.86922
1452.18771,0.85856
1450.25917,0.85123
1448.33063,0.84992
1446.40210,0.85227
1444.47356,0.85178
1442.54503,0.84310
1440.61649,0.82813
1438.68795,0.81795
1436.75942,0.82656
1434.83088,0.84823
1432.90235,0.86267
1430.97381,0.87079
1429.04527,0.87559
1427.11674,0.87741
1425.18820,0.87717
1423.25966,0.87549
1421.33113,0.87179
1419.40259,0.86471
1417.47406,0.86215
1415.54552,0.87025
1413.61698,0.88090
1411.68845,0.88857
1409.75991,0.89246
1407.83138,0.89366
1405.90284,0.89303
1403.97430,0.89078
1402.04577,0.88817
1400.11723,0.88706
1398.18869,0.88794
1396.26016,0.88906
1394.33162,0.88875
1392.40309,0.88751
1390.47455,0.88602
1388.54601,0.88441
1386.61748,0.88247
1384.68894,0.87943
1382.76041,0.87402
1380.83187,0.86373
1378.90333,0.84564
1376.97480,0.81546
1375.04626,0.75965
1373.11773,0.67332
1371.18919,0.58310
1369.26065,0.50548
1367.33212,0.45709
1365.40358,0.45357
1363.47504,0.49335
1361.54651,0.56146
1359.61797,0.62421
1357.68944,0.67494
1355.76090,0.72143
1353.83236,0.76176
1351.90383,0.79097
1349.97529,0.80971
1348.04676,0.82082
1346.11822,0.82530
1344.18968,0.82260
1342.26115,0.81207
1340.33261,0.79572
1338.40407,0.78288
1336.47554,0.78100
1334.54700,0.78543
1332.61847,0.79205
1330.68993,0.80041
1328.76139,0.80934
1326.83286,0.81663
1324.90432,0.82064
1322.97579,0.82067
1321.04725,0.81793
1319.11871,0.81630
1317.19018,0.81880
1315.26164,0.82343
1313.33311,0.82607
1311.40457,0.82167
1309.47603,0.80354
1307.54750,0.76923
1305.61896,0.73062
1303.69042,0.70811
1301.76189,0.71015
1299.83335,0.72721
1297.90482,0.74437
1295.97628,0.75342
1294.04774,0.75236
1292.11921,0.73996
1290.19067,0.71327
1288.26214,0.66844
1286.33360,0.60701
1284.40506,0.54048
1282.47653,0.48419
1280.54799,0.45097
1278.61945,0.44793
1276.69092,0.46895
1274.76238,0.49373
1272.83385,0.50710
1270.90531,0.51520
1268.97677,0.53236
1267.04824,0.56035
1265.11970,0.59062
1263.19117,0.61471
1261.26263,0.62690
1259.33409,0.62565
1257.40556,0.61576
1255.47702,0.60492
1253.54849,0.59911
1251.61995,0.60284
1249.69141,0.61700
1247.76288,0.63621
1245.83434,0.65373
1243.90580,0.66723
1241.97727,0.67773
1240.04873,0.68592
1238.12020,0.69123
1236.19166,0.69288
1234.26312,0.69001
1232.33459,0.68166
1230.40605,0.66775
1228.47752,0.65000
1226.54898,0.63024
1224.62044,0.60805
1222.69191,0.58168
1220.76337,0.55015
1218.83483,0.51406
1216.90630,0.47554
1214.97776,0.43829
1213.04923,0.40762
1211.12069,0.38942
1209.19215,0.38675
1207.26362,0.39770
1205.33508,0.41724
1203.40655,0.43977
1201.47801,0.46002
1199.54947,0.47352
1197.62094,0.47711
1195.69240,0.47009
1193.76387,0.45570
1191.83533,0.43987
1189.90679,0.42612
1187.97826,0.41307
1186.04972,0.39785
1184.12118,0.37947
1182.19265,0.35786
1180.26411,0.33258
1178.33558,0.30436
1176.40704,0.27549
1174.47850,0.24801
1172.54997,0.22292
1170.62143,0.20156
1168.69290,0.18769
1166.76436,0.18623
1164.83582,0.19829
1162.90729,0.21715
1160.97875,0.23055
1159.05021,0.23228
1157.12168,0.22831
1155.19314,0.22637
1153.26461,0.22721
1151.33607,0.22910
1149.40753,0.23136
1147.47900,0.23339
1145.55046,0.23540
1143.62193,0.23869
1141.69339,0.24350
1139.76485,0.24668
1137.83632,0.24314
1135.90778,0.22988
1133.97924,0.20824
1132.05071,0.18275
1130.12217,0.15868
1128.19364,0.14000
1126.26510,0.12813
1124.33656,0.12307
1122.40803,0.12477
1120.47949,0.13242
1118.55096,0.14400
1116.62242,0.15707
1114.69388,0.16906
1112.76535,0.17826
1110.83681,0.18623
1108.90828,0.19685
1106.97974,0.21152
1105.05120,0.22786
1103.12267,0.24383
1101.19413,0.26043
1099.26559,0.27883
1097.33706,0.29782
1095.40852,0.31570
1093.47999,0.33264
1091.55145,0.34936
1089.62291,0.36526
1087.69438,0.37957
1085.76584,0.39198
1083.83731,0.40084
1081.90877,0.40178
1079.98023,0.39366
1078.05170,0.38418
1076.12316,0.38135
1074.19462,0.38513
1072.26609,0.39186
1070.33755,0.39902
1068.40902,0.40599
1066.48048,0.41379
1064.55194,0.42366
1062.62341,0.43611
1060.69487,0.45106
1058.76634,0.46752
1056.83780,0.48214
1054.90926,0.48758
1052.98073,0.47160
1051.05219,0.42525
1049.12366,0.36142
1047.19512,0.30693
1045.26658,0.26840
1043.33805,0.23621
1041.40951,0.21175
1039.48097,0.20157
1037.55244,0.20532
1035.62390,0.21962
1033.69537,0.24030
1031.76683,0.26287
1029.83829,0.28492
1027.90976,0.30651
1025.98122,0.32811
1024.05269,0.34934
1022.12415,0.36951
1020.19561,0.38840
1018.26708,0.40625
1016.33854,0.42266
1014.41000,0.43345
1012.48147,0.42811
1010.55293,0.40545
1008.62440,0.38956
1006.69586,0.40075
1004.76732,0.42779
1002.83879,0.45230
1000.91025,0.46983
998.98172,0.48232
997.05318,0.49151
995.12464,0.49764
993.19611,0.50228
991.26757,0.50868
989.33904,0.51689
987.41050,0.52475
985.48196,0.53141
983.55343,0.53736
981.62489,0.54321
979.69635,0.54807
977.76782,0.54940
975.83928,0.54859
973.91075,0.55179
971.98221,0.55998
970.05367,0.56750
968.12514,0.57096
966.19660,0.57196
964.26807,0.57469
962.33953,0.58234
960.41099,0.59336
958.48246,0.60419
956.55392,0.61359
954.62538,0.62177
952.69685,0.62913
950.76831,0.63605
948.83978,0.64248
946.91124,0.64796
944.98270,0.65143
943.05417,0.64994
941.12563,0.63575
939.19710,0.59798
937.26856,0.53888
935.34002,0.48725
933.41149,0.47536
931.48295,0.50217
929.55442,0.53830
927.62588,0.55681
925.69734,0.55022
923.76881,0.53309
921.84027,0.52867
919.91173,0.54470
917.98320,0.56689
916.05466,0.56595
914.12613,0.50832
912.19759,0.40686
910.26905,0.33971
908.34052,0.35445
906.41198,0.41517
904.48345,0.47434
902.55491,0.51898
900.62637,0.55139
898.69784,0.57455
896.76930,0.59124
894.84076,0.60379
892.91223,0.61370
890.98369,0.62205
889.05516,0.62968
887.12662,0.63717
885.19808,0.64468
883.26955,0.65206
881.34101,0.65909
879.41248,0.66569
877.48394,0.67182
875.55540,0.67755
873.62687,0.68290
871.69833,0.68789
869.76980,0.69254
867.84126,0.69676
865.91272,0.69991
863.98419,0.69897
862.05565,0.68198
860.12711,0.63461
858.19858,0.57885
856.27004,0.56547
854.34151,0.60022
852.41297,0.64367
850.48443,0.67375
848.55590,0.69198
846.62736,0.70307
844.69883,0.71038
842.77029,0.71554
840.84175,0.71939
838.91322,0.72272
836.98468,0.72617
835.05614,0.72976
833.12761,0.73320
831.19907,0.73623
829.27054,0.73882
827.34200,0.74125
825.41346,0.74375
823.48493,0.74649
821.55639,0.74941
819.62786,0.75242
817.69932,0.75542
815.77078,0.75843
813.84225,0.76150
811.91371,0.76444
809.98517,0.76715
808.05664,0.76949
806.12810,0.77134
804.19957,0.77255
802.27103,0.77297
800.34249,0.77210
798.41396,0.76867
796.48542,0.76156
794.55689,0.75205
792.62835,0.74389
790.69981,0.73896
788.77128,0.73507
786.84274,0.72883
784.91421,0.71252
782.98567,0.67290
781.05713,0.61094
779.12860,0.54618
777.20006,0.49149
775.27152,0.45495
773.34299,0.44859
771.41445,0.46931
769.48592,0.49976
767.55738,0.52649
765.62884,0.54124
763.70031,0.54295
761.77177,0.53673
759.84324,0.51465
757.91470,0.47094
755.98616,0.44303
754.05763,0.47181
752.12909,0.53937
750.20055,0.60378
748.27202,0.64949
746.34348,0.68001
744.41495,0.70139
742.48641,0.71819
740.55787,0.73256
738.62934,0.74194
736.70080,0.72683
734.77227,0.67069
732.84373,0.61914
730.91519,0.63202
728.98666,0.68390
727.05812,0.71006
725.12959,0.68068
723.20105,0.62045
721.27251,0.60000
719.34398,0.64473
717.41544,0.69990
715.48690,0.72946
713.55837,0.73994
711.62983,0.73837
709.70130,0.72203
707.77276,0.67765
705.84422,0.59050
703.91569,0.48247
701.98715,0.41851
700.05862,0.42965
698.13008,0.47175
696.20154,0.50027
694.27301,0.52930
692.34447,0.57872
690.41593,0.63273
688.48740,0.67288
686.55886,0.69843
684.63033,0.71496
682.70179,0.72606
680.77325,0.73272
678.84472,0.73246
676.91618,0.71789
674.98765,0.68958
673.05911,0.66461
671.13057,0.64627
669.20204,0.60064
667.27350,0.54816
665.34497,0.57116
663.41643,0.62789
661.48789,0.67841
659.55936,0.70940
657.63082,0.72698
655.70228,0.73810
653.77375,0.74559
651.84521,0.75036
649.91668,0.75003
647.98814,0.73804
646.05960,0.71649
644.13107,0.70584
642.20253,0.71744
640.27400,0.73619
638.34546,0.74686
636.41692,0.75150
634.48839,0.75640
632.55985,0.76196
630.63131,0.76516
628.70278,0.76549
626.77424,0.76629
624.84571,0.76985
622.91717,0.77446
620.98863,0.77787
619.06010,0.77985
617.13156,0.78032
615.20303,0.77946
613.27449,0.77905
611.34595,0.78010
609.41742,0.78155
607.48888,0.78248
605.56035,0.78329
603.63181,0.78409
601.70327,0.78458
599.77474,0.78483
597.84620,0.78499
595.91766,0.78499
593.98913,0.78447
592.06059,0.78292
590.13206,0.78000
588.20352,0.77540
586.27498,0.76880
584.34645,0.76203
582.41791,0.75907
580.48938,0.76059
578.56084,0.76230
576.63230,0.75962
574.70377,0.75067
572.77523,0.73742
570.84669,0.72464
568.91816,0.71572
566.98962,0.70900
565.06109,0.69892
563.13255,0.67843
561.20401,0.64113
559.27548,0.58976
557.34694,0.53274
555.41841,0.47201
553.48987,0.41439
551.56133,0.37670
549.63280,0.36316
547.70426,0.35732
545.77573,0.33594
543.84719,0.29014
541.91865,0.23782
539.99012,0.20904
538.06158,0.21716
536.13304,0.25033
534.20451,0.29319
532.27597,0.33645
530.34744,0.36906
528.41890,0.38351
526.49036,0.38792
524.56183,0.39489
522.63329,0.40278
520.70476,0.40910
518.77622,0.41821
516.84768,0.42965
514.91915,0.44227
512.99061,0.46106
511.06207,0.48741
509.13354,0.51618
507.20500,0.54272
505.27647,0.56448
503.34793,0.58191
501.41939,0.59740
499.49086,0.61117
497.56232,0.62281
495.63379,0.63129
493.70525,0.63451
491.77671,0.63006
489.84818,0.61490
487.91964,0.58718
485.99110,0.54552
484.06257,0.49537
482.13403,0.45653
480.20550,0.44244
478.27696,0.44886
476.34842,0.46775
474.41989,0.49548
472.49135,0.53221
470.56282,0.56774
468.63428,0.59083
466.70574,0.59902
464.77721,0.58619
462.84867,0.54941
460.92014,0.50228
458.99160,0.46359
457.06306,0.43574
455.13453,0.41635
453.20599,0.41534
451.27745,0.44359
449.34892,0.49180
447.42038,0.54217
445.49185,0.58370
443.56331,0.61332
441.63477,0.63434
439.70624,0.64890
437.77770,0.65966
435.84917,0.66867
433.92063,0.67611
431.99209,0.68292
430.06356,0.68965
428.13502,0.69502
426.20648,0.69903
424.27795,0.70239
422.34941,0.70550
420.42088,0.70854
418.49234,0.71093
416.56380,0.71202
414.63527,0.71236
412.70673,0.71288
410.77820,0.71472
408.84966,0.71801
406.92112,0.72051
404.99259,0.71997
403.06405,0.71469
401.13552,0.70457
399.20698,0.69444
