3997.85540,0.96261
3995.92686,0.96247
3993.99833,0.96231
3992.06979,0.96218
3990.14125,0.96216
3988.21272,0.96217
3986.28418,0.96220
3984.35565,0.96231
3982.42711,0.96238
3980.49857,0.96234
3978.57004,0.96233
3976.64150,0.96238
3974.71297,0.96241
3972.78443,0.96237
3970.85589,0.96235
3968.92736,0.96248
3966.99882,0.96269
3965.07029,0.96284
3963.14175,0.96298
3961.21321,0.96315
3959.28468,0.96329
3957.35614,0.96333
3955.42760,0.96328
3953.49907,0.96323
3951.57053,0.96327
3949.64200,0.96340
3947.71346,0.96353
3945.78492,0.96355
3943.85639,0.96350
3941.92785,0.96342
3939.99932,0.96333
3938.07078,0.96329
3936.14224,0.96330
3934.21371,0.96333
3932.28517,0.96341
3930.35663,0.96352
3928.42810,0.96361
3926.49956,0.96361
3924.57103,0.96350
3922.64249,0.96343
3920.71395,0.96340
3918.78542,0.96334
3916.85688,0.96334
3914.92835,0.96339
3912.99981,0.96337
3911.07127,0.96326
3909.14274,0.96308
3907.21420,0.96290
3905.28566,0.96285
3903.35713,0.96292
3901.42859,0.96284
3899.50006,0.96258
3897.57152,0.96246
3895.64298,0.96251
3893.71445,0.96260
3891.78591,0.96271
3889.85738,0.96291
3887.92884,0.96307
3886.00030,0.96314
3884.07177,0.96320
3882.14323,0.96342
3880.21470,0.96375
3878.28616,0.96388
3876.35762,0.96379
3874.42909,0.96365
3872.50055,0.96354
3870.57201,0.96341
3868.64348,0.96324
3866.71494,0.96304
3864.78641,0.96297
3862.85787,0.96320
3860.92933,0.96346
3859.00080,0.96353
3857.07226,0.96353
3855.14373,0.96355
3853.21519,0.96335
3851.28665,0.96306
3849.35812,0.96309
3847.42958,0.96321
3845.50104,0.96330
3843.57251,0.96335
3841.64397,0.96331
3839.71544,0.96331
3837.78690,0.96350
3835.85836,0.96354
3833.92983,0.96358
3832.00129,0.96375
3830.07276,0.96380
3828.14422,0.96371
3826.21568,0.96365
3824.28715,0.96361
3822.35861,0.96361
3820.43008,0.96369
3818.50154,0.96360
3816.57300,0.96343
3814.64447,0.96353
3812.71593,0.96374
3810.78739,0.96379
3808.85886,0.96370
3806.93032,0.96368
3805.00179,0.96376
3803.07325,0.96371
3801.14471,0.96372
3799.21618,0.96382
3797.28764,0.96385
3795.35911,0.96390
3793.43057,0.96394
3791.50203,0.96393
3789.57350,0.96387
3787.64496,0.96381
3785.71642,0.96383
3783.78789,0.96398
3781.85935,0.96418
3779.93082,0.96440
3778.00228,0.96448
3776.07374,0.96436
3774.14521,0.96425
3772.21667,0.96421
3770.28814,0.96426
3768.35960,0.96433
3766.43106,0.96438
3764.50253,0.96440
3762.57399,0.96433
3760.64546,0.96432
3758.71692,0.96444
3756.78838,0.96454
3754.85985,0.96453
3752.93131,0.96444
3751.00277,0.96440
3749.07424,0.96462
3747.14570,0.96465
3745.21717,0.96448
3743.28863,0.96442
3741.36009,0.96453
3739.43156,0.96467
3737.50302,0.96477
3735.57449,0.96478
3733.64595,0.96475
3731.71741,0.96481
3729.78888,0.96483
3727.86034,0.96476
3725.93180,0.96470
3724.00327,0.96475
3722.07473,0.96478
3720.14620,0.96478
3718.21766,0.96483
3716.28912,0.96485
3714.36059,0.96477
3712.43205,0.96469
3710.50352,0.96473
3708.57498,0.96478
3706.64644,0.96482
3704.71791,0.96485
3702.78937,0.96493
3700.86084,0.96502
3698.93230,0.96509
3697.00376,0.96512
3695.07523,0.96507
3693.14669,0.96493
3691.21815,0.96484
3689.28962,0.96491
3687.36108,0.96501
3685.43255,0.96506
3683.50401,0.96506
3681.57547,0.96506
3679.64694,0.96509
3677.71840,0.96514
3675.78987,0.96504
3673.86133,0.96485
3671.93279,0.96469
3670.00426,0.96457
3668.07572,0.96468
3666.14718,0.96478
3664.21865,0.96471
3662.29011,0.96454
3660.36158,0.96431
3658.43304,0.96401
3656.50450,0.96364
3654.57597,0.96329
3652.64743,0.96297
3650.71890,0.96247
3648.79036,0.96188
3646.86182,0.96181
3644.93329,0.96198
3643.00475,0.96223
3641.07622,0.96252
3639.14768,0.96277
3637.21914,0.96295
3635.29061,0.96308
3633.36207,0.96316
3631.43353,0.96321
3629.50500,0.96326
3627.57646,0.96342
3625.64793,0.96367
3623.71939,0.96379
3621.79085,0.96379
3619.86232,0.96382
3617.93378,0.96386
3616.00525,0.96378
3614.07671,0.96382
3612.14817,0.96407
3610.21964,0.96419
3608.29110,0.96408
3606.36256,0.96405
3604.43403,0.96415
3602.50549,0.96424
3600.57696,0.96436
3598.64842,0.96445
3596.71988,0.96446
3594.79135,0.96443
3592.86281,0.96431
3590.93428,0.96418
3589.00574,0.96414
3587.07720,0.96414
3585.14867,0.96420
3583.22013,0.96436
3581.29160,0.96454
3579.36306,0.96470
3577.43452,0.96479
3575.50599,0.96475
3573.57745,0.96469
3571.64891,0.96470
3569.72038,0.96465
3567.79184,0.96440
3565.86331,0.96414
3563.93477,0.96419
3562.00623,0.96429
3560.07770,0.96428
3558.14916,0.96430
3556.22063,0.96433
3554.29209,0.96425
3552.36355,0.96415
3550.43502,0.96417
3548.50648,0.96423
3546.57794,0.96428
3544.64941,0.96430
3542.72087,0.96429
3540.79234,0.96428
3538.86380,0.96425
3536.93526,0.96422
3535.00673,0.96421
3533.07819,0.96416
3531.14966,0.96418
3529.22112,0.96425
3527.29258,0.96421
3525.36405,0.96412
3523.43551,0.96415
3521.50697,0.96428
3519.57844,0.96441
3517.64990,0.96447
3515.72137,0.96451
3513.79283,0.96455
3511.86429,0.96459
3509.93576,0.96455
3508.00722,0.96444
3506.07869,0.96429
3504.15015,0.96418
3502.22161,0.96428
3500.29308,0.96445
3498.36454,0.96444
3496.43601,0.96435
3494.50747,0.96434
3492.57893,0.96435
3490.65040,0.96434
3488.72186,0.96433
3486.79332,0.96436
3484.86479,0.96436
3482.93625,0.96430
3481.00772,0.96425
3479.07918,0.96427
3477.15064,0.96432
3475.22211,0.96440
3473.29357,0.96457
3471.36504,0.96475
3469.43650,0.96474
3467.50796,0.96463
3465.57943,0.96459
3463.65089,0.96464
3461.72235,0.96468
3459.79382,0.96463
3457.86528,0.96458
3455.93675,0.96462
3454.00821,0.96467
3452.07967,0.96465
3450.15114,0.96458
3448.22260,0.96456
3446.29407,0.96459
3444.36553,0.96458
3442.43699,0.96461
3440.50846,0.96475
3438.57992,0.96493
3436.65139,0.96501
3434.72285,0.96496
3432.79431,0.96489
3430.86578,0.96487
3428.93724,0.96491
3427.00870,0.96491
3425.08017,0.96485
3423.15163,0.96480
3421.22310,0.96482
3419.29456,0.96484
3417.36602,0.96476
3415.43749,0.96462
3413.50895,0.96459
3411.58042,0.96467
3409.65188,0.96469
3407.72334,0.96466
3405.79481,0.96464
3403.86627,0.96463
3401.93773,0.96465
3400.00920,0.96468
3398.08066,0.96464
3396.15213,0.96461
3394.22359,0.96463
3392.29505,0.96467
3390.36652,0.96467
3388.43798,0.96453
3386.50945,0.96432
3384.58091,0.96414
3382.65237,0.96402
3380.72384,0.96400
3378.79530,0.96407
3376.86677,0.96407
3374.93823,0.96393
3373.00969,0.96374
3371.08116,0.96359
3369.15262,0.96346
3367.22408,0.96327
3365.29555,0.96303
3363.36701,0.96281
3361.43848,0.96259
3359.50994,0.96233
3357.58140,0.96204
3355.65287,0.96182
3353.72433,0.96169
3351.79580,0.96154
3349.86726,0.96132
3347.93872,0.96106
3346.01019,0.96073
3344.08165,0.96024
3342.15311,0.95963
3340.22458,0.95903
3338.29604,0.95835
3336.36751,0.95752
3334.43897,0.95655
3332.51043,0.95553
3330.58190,0.95451
3328.65336,0.95355
3326.72483,0.95257
3324.79629,0.95148
3322.86775,0.95038
3320.93922,0.94928
3319.01068,0.94803
3317.08215,0.94657
3315.15361,0.94485
3313.22507,0.94282
3311.29654,0.94043
3309.36800,0.93756
3307.43946,0.93420
3305.51093,0.93040
3303.58239,0.92601
3301.65386,0.92086
3299.72532,0.91475
3297.79678,0.90754
3295.86825,0.89963
3293.93971,0.89160
3292.01118,0.88365
3290.08264,0.87589
3288.15410,0.86812
3286.22557,0.86000
3284.29703,0.85162
3282.36849,0.84385
3280.43996,0.83824
3278.51142,0.83616
3276.58289,0.83813
3274.65435,0.84368
3272.72581,0.85149
3270.79728,0.86002
3268.86874,0.86830
3266.94021,0.87585
3265.01167,0.88246
3263.08313,0.88816
3261.15460,0.89310
3259.22606,0.89741
3257.29753,0.90115
3255.36899,0.90442
3253.44045,0.90739
3251.51192,0.91007
3249.58338,0.91244
3247.65484,0.91457
3245.72631,0.91665
3243.79777,0.91864
3241.86924,0.92037
3239.94070,0.92194
3238.01216,0.92348
3236.08363,0.92495
3234.15509,0.92627
3232.22656,0.92748
3230.29802,0.92866
3228.36948,0.92989
3226.44095,0.93106
3224.51241,0.93200
3222.58387,0.93276
3220.65534,0.93352
3218.72680,0.93438
3216.79827,0.93530
3214.86973,0.93625
3212.94119,0.93719
3211.01266,0.93806
3209.08412,0.93894
3207.15559,0.93988
3205.22705,0.94082
3203.29851,0.94163
3201.36998,0.94230
3199.44144,0.94298
3197.51290,0.94372
3195.58437,0.94438
3193.65583,0.94493
3191.72730,0.94545
3189.79876,0.94593
3187.87022,0.94644
3185.94169,0.94701
3184.01315,0.94754
3182.08462,0.94793
3180.15608,0.94825
3178.22754,0.94856
3176.29901,0.94882
3174.37047,0.94910
3172.44194,0.94945
3170.51340,0.94986
3168.58486,0.95024
3166.65633,0.95055
3164.72779,0.95079
3162.79925,0.95099
3160.87072,0.95118
3158.94218,0.95133
3157.01365,0.95141
3155.08511,0.95148
3153.15657,0.95159
3151.22804,0.95176
3149.29950,0.95195
3147.37097,0.95221
3145.44243,0.95241
3143.51389,0.95249
3141.58536,0.95258
3139.65682,0.95273
3137.72828,0.95279
3135.79975,0.95270
3133.87121,0.95263
3131.94268,0.95271
3130.01414,0.95279
3128.08560,0.95272
3126.15707,0.95256
3124.22853,0.95231
3122.30000,0.95178
3120.37146,0.95083
3118.44292,0.94941
3116.51439,0.94748
3114.58585,0.94514
3112.65732,0.94289
3110.72878,0.94157
3108.80024,0.94172
3106.87171,0.94298
3104.94317,0.94448
3103.01463,0.94563
3101.08610,0.94642
3099.15756,0.94695
3097.22903,0.94728
3095.30049,0.94747
3093.37195,0.94756
3091.44342,0.94764
3089.51488,0.94780
3087.58635,0.94805
3085.65781,0.94828
3083.72927,0.94837
3081.80074,0.94825
3079.87220,0.94792
3077.94366,0.94752
3076.01513,0.94729
3074.08659,0.94727
3072.15806,0.94725
3070.22952,0.94688
3068.30098,0.94623
3066.37245,0.94576
3064.44391,0.94580
3062.51538,0.94622
3060.58684,0.94668
3058.65830,0.94696
3056.72977,0.94706
3054.80123,0.94726
3052.87270,0.94779
3050.94416,0.94851
3049.01562,0.94907
3047.08709,0.94943
3045.15855,0.94973
3043.23001,0.94991
3041.30148,0.94988
3039.37294,0.94967
3037.44441,0.94937
3035.51587,0.94913
3033.58733,0.94897
3031.65880,0.94879
3029.73026,0.94859
3027.80173,0.94869
3025.87319,0.94914
3023.94465,0.94944
3022.01612,0.94918
3020.08758,0.94848
3018.15904,0.94786
3016.23051,0.94785
3014.30197,0.94835
3012.37344,0.94879
3010.44490,0.94881
3008.51636,0.94850
3006.58783,0.94802
3004.65929,0.94746
3002.73076,0.94696
3000.80222,0.94664
2998.87368,0.94654
2996.94515,0.94649
2995.01661,0.94628
2993.08808,0.94587
2991.15954,0.94517
2989.23100,0.94411
2987.30247,0.94277
2985.37393,0.94118
2983.44539,0.93920
2981.51686,0.93650
2979.58832,0.93275
2977.65979,0.92793
2975.73125,0.92226
2973.80271,0.91565
2971.87418,0.90799
2969.94564,0.89968
2968.01711,0.89132
2966.08857,0.88353
2964.16003,0.87678
2962.23150,0.87117
2960.30296,0.86666
2958.37442,0.86341
2956.44589,0.86163
2954.51735,0.86154
2952.58882,0.86321
2950.66028,0.86625
2948.73174,0.86969
2946.80321,0.87236
2944.87467,0.87317
2942.94614,0.87129
2941.01760,0.86630
2939.08906,0.85861
2937.16053,0.84982
2935.23199,0.84157
2933.30346,0.83400
2931.37492,0.82640
2929.44638,0.81878
2927.51785,0.81207
2925.58931,0.80756
2923.66077,0.80634
2921.73224,0.80884
2919.80370,0.81460
2917.87517,0.82235
2915.94663,0.83051
2914.01809,0.83793
2912.08956,0.84432
2910.16102,0.84993
2908.23249,0.85505
2906.30395,0.85988
2904.37541,0.86453
2902.44688,0.86904
2900.51834,0.87343
2898.58980,0.87773
2896.66127,0.88188
2894.73273,0.88577
2892.80420,0.88944
2890.87566,0.89295
2888.94712,0.89628
2887.01859,0.89919
2885.09005,0.90139
2883.16152,0.90270
2881.23298,0.90290
2879.30444,0.90188
2877.37591,0.89978
2875.44737,0.89696
2873.51883,0.89398
2871.59030,0.89159
2869.66176,0.89023
2867.73323,0.88957
2865.80469,0.88867
2863.87615,0.88660
2861.94762,0.88291
2860.01908,0.87776
2858.09055,0.87196
2856.16201,0.86706
2854.23347,0.86491
2852.30494,0.86689
2850.37640,0.87297
2848.44787,0.88156
2846.51933,0.89066
2844.59079,0.89929
2842.66226,0.90721
2840.73372,0.91432
2838.80518,0.92049
2836.87665,0.92561
2834.94811,0.92966
2833.01958,0.93274
2831.09104,0.93514
2829.16250,0.93706
2827.23397,0.93864
2825.30543,0.93997
2823.37690,0.94111
2821.44836,0.94209
2819.51982,0.94294
2817.59129,0.94363
2815.66275,0.94420
2813.73421,0.94477
2811.80568,0.94534
2809.87714,0.94577
2807.94861,0.94594
2806.02007,0.94597
2804.09153,0.94605
2802.16300,0.94638
2800.23446,0.94705
2798.30593,0.94776
2796.37739,0.94815
2794.44885,0.94840
2792.52032,0.94885
2790.59178,0.94937
2788.66325,0.94951
2786.73471,0.94923
2784.80617,0.94897
2782.87764,0.94901
2780.94910,0.94918
2779.02056,0.94940
2777.09203,0.94983
2775.16349,0.95031
2773.23496,0.95051
2771.30642,0.95050
2769.37788,0.95057
2767.44935,0.95078
2765.52081,0.95097
2763.59228,0.95116
2761.66374,0.95142
2759.73520,0.95171
2757.80667,0.95190
2755.87813,0.95196
2753.94959,0.95194
2752.02106,0.95196
2750.09252,0.95205
2748.16399,0.95195
2746.23545,0.95159
2744.30691,0.95118
2742.37838,0.95088
2740.44984,0.95076
2738.52131,0.95079
2736.59277,0.95079
2734.66423,0.95069
2732.73570,0.95075
2730.80716,0.95101
2728.87863,0.95141
2726.95009,0.95184
2725.02155,0.95216
2723.09302,0.95233
2721.16448,0.95239
2719.23594,0.95240
2717.30741,0.95246
2715.37887,0.95256
2713.45034,0.95268
2711.52180,0.95286
2709.59326,0.95307
2707.66473,0.95316
2705.73619,0.95316
2703.80766,0.95316
2701.87912,0.95317
2699.95058,0.95318
2698.02205,0.95311
2696.09351,0.95299
2694.16497,0.95284
2692.23644,0.95262
2690.30790,0.95229
2688.37937,0.95207
2686.45083,0.95208
2684.52229,0.95225
2682.59376,0.95259
2680.66522,0.95302
2678.73669,0.95322
2676.80815,0.95300
2674.87961,0.95266
2672.95108,0.95245
2671.02254,0.95235
2669.09401,0.95226
2667.16547,0.95222
2665.23693,0.95224
2663.30840,0.95228
2661.37986,0.95230
2659.45132,0.95229
2657.52279,0.95223
2655.59425,0.95214
2653.66572,0.95214
2651.73718,0.95233
2649.80864,0.95269
2647.88011,0.95316
2645.95157,0.95366
2644.02304,0.95415
2642.09450,0.95461
2640.16596,0.95504
2638.23743,0.95534
2636.30889,0.95549
2634.38035,0.95566
2632.45182,0.95586
2630.52328,0.95601
2628.59475,0.95614
2626.66621,0.95628
2624.73767,0.95635
2622.80914,0.95637
2620.88060,0.95647
2618.95207,0.95668
2617.02353,0.95690
2615.09499,0.95706
2613.16646,0.95716
2611.23792,0.95721
2609.30939,0.95715
2607.38085,0.95699
2605.45231,0.95690
2603.52378,0.95692
2601.59524,0.95690
2599.66670,0.95678
2597.73817,0.95672
2595.80963,0.95678
2593.88110,0.95682
2591.95256,0.95679
2590.02402,0.95668
2588.09549,0.95655
2586.16695,0.95654
2584.23842,0.95659
2582.30988,0.95660
2580.38134,0.95653
2578.45281,0.95648
2576.52427,0.95650
2574.59573,0.95655
2572.66720,0.95655
2570.73866,0.95644
2568.81013,0.95621
2566.88159,0.95593
2564.95305,0.95568
2563.02452,0.95547
2561.09598,0.95518
2559.16745,0.95472
2557.23891,0.95430
2555.31037,0.95410
2553.38184,0.95412
2551.45330,0.95433
2549.52476,0.95457
2547.59623,0.95479
2545.66769,0.95515
2543.73916,0.95560
2541.81062,0.95605
2539.88208,0.95648
2537.95355,0.95686
2536.02501,0.95714
2534.09648,0.95736
2532.16794,0.95746
2530.23940,0.95741
2528.31087,0.95733
2526.38233,0.95740
2524.45380,0.95758
2522.52526,0.95771
2520.59672,0.95777
2518.66819,0.95784
2516.73965,0.95799
2514.81111,0.95809
2512.88258,0.95803
2510.95404,0.95800
2509.02551,0.95808
2507.09697,0.95820
2505.16843,0.95831
2503.23990,0.95831
2501.31136,0.95812
2499.38283,0.95785
2497.45429,0.95756
2495.52575,0.95725
2493.59722,0.95706
2491.66868,0.95720
2489.74014,0.95767
2487.81161,0.95821
2485.88307,0.95866
2483.95454,0.95910
2482.02600,0.95948
2480.09746,0.95962
2478.16893,0.95966
2476.24039,0.95984
2474.31186,0.96017
2472.38332,0.96046
2470.45478,0.96063
2468.52625,0.96066
2466.59771,0.96063
2464.66918,0.96070
2462.74064,0.96084
2460.81210,0.96092
2458.88357,0.96103
2456.95503,0.96115
2455.02649,0.96115
2453.09796,0.96103
2451.16942,0.96096
2449.24089,0.96102
2447.31235,0.96116
2445.38381,0.96124
2443.45528,0.96120
2441.52674,0.96110
2439.59821,0.96101
2437.66967,0.96094
2435.74113,0.96090
2433.81260,0.96089
2431.88406,0.96080
2429.95552,0.96070
2428.02699,0.96076
2426.09845,0.96079
2424.16992,0.96059
2422.24138,0.96039
2420.31284,0.96033
2418.38431,0.96023
2416.45577,0.96000
2414.52724,0.95978
2412.59870,0.95964
2410.67016,0.95953
2408.74163,0.95945
2406.81309,0.95946
2404.88456,0.95955
2402.95602,0.95966
2401.02748,0.95975
2399.09895,0.95975
2397.17041,0.95964
2395.24187,0.95949
2393.31334,0.95938
2391.38480,0.95930
2389.45627,0.95924
2387.52773,0.95923
2385.59919,0.95915
2383.67066,0.95887
2381.74212,0.95852
2379.81359,0.95823
2377.88505,0.95798
2375.95651,0.95776
2374.02798,0.95751
2372.09944,0.95688
2370.17090,0.95584
2368.24237,0.95481
2366.31383,0.95394
2364.38530,0.95320
2362.45676,0.95258
2360.52822,0.95241
2358.59969,0.95289
2356.67115,0.95365
2354.74262,0.95457
2352.81408,0.95552
2350.88554,0.95608
2348.95701,0.95604
2347.02847,0.95556
2345.09994,0.95509
2343.17140,0.95493
2341.24286,0.95481
2339.31433,0.95481
2337.38579,0.95498
2335.45725,0.95503
2333.52872,0.95482
2331.60018,0.95439
2329.67165,0.95405
2327.74311,0.95410
2325.81457,0.95435
2323.88604,0.95451
2321.95750,0.95468
2320.02897,0.95489
2318.10043,0.95508
2316.17189,0.95537
2314.24336,0.95578
2312.31482,0.95616
2310.38628,0.95648
2308.45775,0.95684
2306.52921,0.95722
2304.60068,0.95744
2302.67214,0.95744
2300.74360,0.95742
2298.81507,0.95748
2296.88653,0.95767
2294.95800,0.95798
2293.02946,0.95826
2291.10092,0.95832
2289.17239,0.95825
2287.24385,0.95834
2285.31532,0.95868
2283.38678,0.95900
2281.45824,0.95915
2279.52971,0.95934
2277.60117,0.95971
2275.67263,0.96006
2273.74410,0.96023
2271.81556,0.96034
2269.88703,0.96052
2267.95849,0.96061
2266.02995,0.96050
2264.10142,0.96043
2262.17288,0.96063
2260.24435,0.96098
2258.31581,0.96124
2256.38727,0.96142
2254.45874,0.96168
2252.53020,0.96192
2250.60166,0.96187
2248.67313,0.96159
2246.74459,0.96139
2244.81606,0.96141
2242.88752,0.96162
2240.95898,0.96189
2239.03045,0.96208
2237.10191,0.96229
2235.17338,0.96256
2233.24484,0.96289
2231.31630,0.96321
2229.38777,0.96329
2227.45923,0.96319
2225.53070,0.96323
2223.60216,0.96347
2221.67362,0.96363
2219.74509,0.96368
2217.81655,0.96383
2215.88801,0.96408
2213.95948,0.96452
2212.03094,0.96509
2210.10241,0.96551
2208.17387,0.96581
2206.24533,0.96612
2204.31680,0.96638
2202.38826,0.96663
2200.45973,0.96691
2198.53119,0.96714
2196.60265,0.96726
2194.67412,0.96736
2192.74558,0.96760
2190.81704,0.96787
2188.88851,0.96804
2186.95997,0.96817
2185.03144,0.96825
2183.10290,0.96840
2181.17436,0.96865
2179.24583,0.96883
2177.31729,0.96892
2175.38876,0.96886
2173.46022,0.96861
2171.53168,0.96836
2169.60315,0.96821
2167.67461,0.96809
2165.74607,0.96823
2163.81754,0.96893
2161.88900,0.96984
2159.96047,0.97018
2158.03193,0.96980
2156.10339,0.96930
2154.17486,0.96906
2152.24632,0.96885
2150.31779,0.96859
2148.38925,0.96853
2146.46071,0.96861
2144.53218,0.96850
2142.60364,0.96823
2140.67511,0.96793
2138.74657,0.96754
2136.81803,0.96719
2134.88950,0.96706
2132.96096,0.96699
2131.03242,0.96683
2129.10389,0.96670
2127.17535,0.96664
2125.24682,0.96648
2123.31828,0.96614
2121.38974,0.96573
2119.46121,0.96562
2117.53267,0.96584
2115.60414,0.96599
2113.67560,0.96595
2111.74706,0.96584
2109.81853,0.96569
2107.88999,0.96558
2105.96145,0.96562
2104.03292,0.96569
2102.10438,0.96562
2100.17585,0.96557
2098.24731,0.96567
2096.31877,0.96594
2094.39024,0.96627
2092.46170,0.96654
2090.53317,0.96663
2088.60463,0.96655
2086.67609,0.96647
2084.74756,0.96641
2082.81902,0.96640
2080.89049,0.96651
2078.96195,0.96683
2077.03341,0.96725
2075.10488,0.96754
2073.17634,0.96778
2071.24780,0.96801
2069.31927,0.96799
2067.39073,0.96776
2065.46220,0.96773
2063.53366,0.96797
2061.60512,0.96829
2059.67659,0.96864
2057.74805,0.96895
2055.81952,0.96898
2053.89098,0.96877
2051.96244,0.96874
2050.03391,0.96908
2048.10537,0.96951
2046.17683,0.96970
2044.24830,0.96977
2042.31976,0.97003
2040.39123,0.97034
2038.46269,0.97049
2036.53415,0.97068
2034.60562,0.97086
2032.67708,0.97070
2030.74855,0.97031
2028.82001,0.97006
2026.89147,0.97012
2024.96294,0.97062
2023.03440,0.97129
2021.10587,0.97160
2019.17733,0.97169
2017.24879,0.97200
2015.32026,0.97235
2013.39172,0.97235
2011.46318,0.97211
2009.53465,0.97172
2007.60611,0.97128
2005.67758,0.97098
2003.74904,0.97066
2001.82050,0.97024
1999.89197,0.97002
1997.96343,0.97011
1996.03490,0.97022
1994.10636,0.97016
1992.17782,0.97002
1990.24929,0.96952
1988.32075,0.96858
1986.39221,0.96794
1984.46368,0.96814
1982.53514,0.96870
1980.60661,0.96925
1978.67807,0.96989
1976.74953,0.97021
1974.82100,0.96966
1972.89246,0.96832
1970.96393,0.96705
1969.03539,0.96706
1967.10685,0.96843
1965.17832,0.96976
1963.24978,0.97040
1961.32125,0.97088
1959.39271,0.97112
1957.46417,0.97092
1955.53564,0.97078
1953.60710,0.97105
1951.67856,0.97146
1949.75003,0.97174
1947.82149,0.97205
1945.89296,0.97240
1943.96442,0.97260
1942.03588,0.97241
1940.10735,0.97190
1938.17881,0.97150
1936.25028,0.97130
1934.32174,0.97104
1932.39320,0.97056
1930.46467,0.97015
1928.53613,0.97005
1926.60759,0.97000
1924.67906,0.96958
1922.75052,0.96851
1920.82199,0.96727
1918.89345,0.96654
1916.96491,0.96650
1915.03638,0.96681
1913.10784,0.96705
1911.17931,0.96709
1909.25077,0.96679
1907.32223,0.96594
1905.39370,0.96456
1903.46516,0.96327
1901.53663,0.96308
1899.60809,0.96392
1897.67955,0.96484
1895.75102,0.96540
1893.82248,0.96581
1891.89394,0.96626
1889.96541,0.96673
1888.03687,0.96703
1886.10834,0.96717
1884.17980,0.96732
1882.25126,0.96745
1880.32273,0.96742
1878.39419,0.96725
1876.46566,0.96717
1874.53712,0.96725
1872.60858,0.96741
1870.68005,0.96760
1868.75151,0.96758
1866.82297,0.96730
1864.89444,0.96709
1862.96590,0.96693
1861.03737,0.96674
1859.10883,0.96656
1857.18029,0.96644
1855.25176,0.96628
1853.32322,0.96603
1851.39469,0.96576
1849.46615,0.96550
1847.53761,0.96528
1845.60908,0.96513
1843.68054,0.96485
1841.75200,0.96444
1839.82347,0.96414
1837.89493,0.96385
1835.96640,0.96340
1834.03786,0.96275
1832.10932,0.96192
1830.18079,0.96072
1828.25225,0.95958
1826.32372,0.95915
1824.39518,0.95921
1822.46664,0.95961
1820.53811,0.96029
1818.60957,0.96112
1816.68104,0.96182
1814.75250,0.96216
1812.82396,0.96226
1810.89543,0.96220
1808.96689,0.96192
1807.03835,0.96138
1805.10982,0.96062
1803.18128,0.95968
1801.25275,0.95870
1799.32421,0.95801
1797.39567,0.95755
1795.46714,0.95703
1793.53860,0.95617
1791.61007,0.95464
1789.68153,0.95310
1787.75299,0.95187
1785.82446,0.95052
1783.89592,0.94903
1781.96738,0.94746
1780.03885,0.94579
1778.11031,0.94475
1776.18178,0.94464
1774.25324,0.94469
1772.32470,0.94408
1770.39617,0.94451
1768.46763,0.94719
1766.53910,0.95023
1764.61056,0.95218
1762.68202,0.95346
1760.75349,0.95457
1758.82495,0.95529
1756.89642,0.95567
1754.96788,0.95578
1753.03934,0.95573
1751.11081,0.95543
1749.18227,0.95447
1747.25373,0.95311
1745.32520,0.95183
1743.39666,0.95060
1741.46813,0.94956
1739.53959,0.94885
1737.61105,0.94854
1735.68252,0.94879
1733.75398,0.94966
1731.82545,0.95038
1729.89691,0.95083
1727.96837,0.95134
1726.03984,0.95179
1724.11130,0.95219
1722.18276,0.95256
1720.25423,0.95292
1718.32569,0.95341
1716.39716,0.95396
1714.46862,0.95417
1712.54008,0.95433
1710.61155,0.95451
1708.68301,0.95464
1706.75448,0.95481
1704.82594,0.95534
1702.89740,0.95611
1700.96887,0.95694
1699.04033,0.95766
1697.11180,0.95792
1695.18326,0.95812
1693.25472,0.95837
1691.32619,0.95869
1689.39765,0.95911
1687.46911,0.95955
1685.54058,0.96000
1683.61204,0.96006
1681.68351,0.95948
1679.75497,0.95902
1677.82643,0.95858
1675.89790,0.95796
1673.96936,0.95730
1672.04083,0.95697
1670.11229,0.95723
1668.18375,0.95808
1666.25522,0.95872
1664.32668,0.95913
1662.39814,0.95936
1660.46961,0.95914
1658.54107,0.95852
1656.61254,0.95773
1654.68400,0.95656
1652.75546,0.95401
1650.82693,0.95259
1648.89839,0.95243
1646.96986,0.95256
1645.04132,0.95240
1643.11278,0.95192
1641.18425,0.95125
1639.25571,0.95046
1637.32718,0.94942
1635.39864,0.94737
1633.47010,0.94467
1631.54157,0.94117
1629.61303,0.93448
1627.68449,0.92345
1625.75596,0.91453
1623.82742,0.91514
1621.89889,0.92365
1619.97035,0.93085
1618.04181,0.93637
1616.11328,0.94229
1614.18474,0.94579
1612.25621,0.94757
1610.32767,0.94903
1608.39913,0.94966
1606.47060,0.94819
1604.54206,0.94401
1602.61352,0.93822
1600.68499,0.93465
1598.75645,0.93477
1596.82792,0.93541
1594.89938,0.93386
1592.97084,0.93141
1591.04231,0.93133
1589.11377,0.93417
1587.18524,0.93751
1585.25670,0.93986
1583.32816,0.94187
1581.39963,0.94371
1579.47109,0.94456
1577.54256,0.94463
1575.61402,0.94581
1573.68548,0.94768
1571.75695,0.94905
1569.82841,0.95062
1567.89987,0.95194
1565.97134,0.95208
1564.04280,0.95154
1562.11427,0.95094
1560.18573,0.95127
1558.25719,0.95447
1556.32866,0.95637
1554.40012,0.95692
1552.47159,0.95717
1550.54305,0.95713
1548.61451,0.95706
1546.68598,0.95729
1544.75744,0.95820
1542.82890,0.96000
1540.90037,0.96177
1538.97183,0.96053
1537.04330,0.95908
1535.11476,0.95789
1533.18622,0.95627
1531.25769,0.95496
1529.32915,0.95426
1527.40062,0.95351
1525.47208,0.95222
1523.54354,0.95028
1521.61501,0.94573
1519.68647,0.93982
1517.75793,0.93323
1515.82940,0.92352
1513.90086,0.91344
1511.97233,0.90269
1510.04379,0.89068
1508.11525,0.88339
1506.18672,0.89663
1504.25818,0.90773
1502.32965,0.91277
1500.40111,0.91563
1498.47257,0.91460
1496.54404,0.90915
1494.61550,0.90480
1492.68697,0.90285
1490.75843,0.89950
1488.82989,0.88355
1486.90136,0.85317
1484.97282,0.82601
1483.04428,0.81412
1481.11575,0.82568
1479.18721,0.85102
1477.25868,0.87373
1475.33014,0.89050
1473.40160,0.90169
1471.47307,0.90557
1469.54453,0.90523
1467.61600,0.90445
1465.68746,0.90436
1463.75892,0.90491
1461.83039,0.90512
1459.90185,0.90530
1457.97331,0.90623
1456.04478,0.90682
1454.11624,0.90434
1452.18771,0.89820
1450.25917,0.88704
1448.33063,0.87111
1446.40210,0.85883
1444.47356,0.85538
1442.54503,0.85501
1440.61649,0.85606
1438.68795,0.86334
1436.75942,0.88233
1434.83088,0.90073
1432.90235,0.90778
1430.97381,0.90982
1429.04527,0.90752
1427.11674,0.89979
1425.18820,0.88633
1423.25966,0.87072
1421.33113,0.86116
1419.40259,0.85917
1417.47406,0.86334
1415.54552,0.86732
1413.61698,0.86564
1411.68845,0.85609
1409.75991,0.83878
1407.83138,0.81485
1405.90284,0.77796
1403.97430,0.72747
1402.04577,0.68198
1400.11723,0.64123
1398.18869,0.60058
1396.26016,0.57320
1394.33162,0.56627
1392.40309,0.57582
1390.47455,0.59543
1388.54601,0.62728
1386.61748,0.67274
1384.68894,0.71487
1382.76041,0.74809
1380.83187,0.77636
1378.90333,0.79476
1376.97480,0.79532
1375.04626,0.76485
1373.11773,0.70397
1371.18919,0.65442
1369.26065,0.64126
1367.33212,0.66619
1365.40358,0.70924
1363.47504,0.75689
1361.54651,0.80326
1359.61797,0.83449
1357.68944,0.85311
1355.76090,0.86351
1353.83236,0.86414
1351.90383,0.85126
1349.97529,0.81611
1348.04676,0.74896
1346.11822,0.65820
1344.18968,0.57576
1342.26115,0.53105
1340.33261,0.53117
1338.40407,0.56501
1336.47554,0.60667
1334.54700,0.64503
1332.61847,0.67905
1330.68993,0.70193
1328.76139,0.70302
1326.83286,0.68757
1324.90432,0.68329
1322.97579,0.70637
1321.04725,0.74267
1319.11871,0.77393
1317.19018,0.79617
1315.26164,0.81335
1313.33311,0.82821
1311.40457,0.84014
1309.47603,0.84873
1307.54750,0.85448
1305.61896,0.85694
1303.69042,0.85470
1301.76189,0.84527
1299.83335,0.82520
1297.90482,0.79103
1295.97628,0.74261
1294.04774,0.68476
1292.11921,0.62475
1290.19067,0.57174
1288.26214,0.53473
1286.33360,0.51324
1284.40506,0.49561
1282.47653,0.47592
1280.54799,0.46287
1278.61945,0.46572
1276.69092,0.47916
1274.76238,0.48993
1272.83385,0.49496
1270.90531,0.50512
1268.97677,0.52714
1267.04824,0.55149
1265.11970,0.56843
1263.19117,0.58047
1261.26263,0.59123
1259.33409,0.59556
1257.40556,0.59031
1255.47702,0.58244
1253.54849,0.57926
1251.61995,0.58391
1249.69141,0.59972
1247.76288,0.62831
1245.83434,0.66556
1243.90580,0.70464
1241.97727,0.73984
1240.04873,0.76820
1238.12020,0.78994
1236.19166,0.80710
1234.26312,0.82185
1232.33459,0.83526
1230.40605,0.84743
1228.47752,0.85825
1226.54898,0.86757
1224.62044,0.87526
1222.69191,0.88106
1220.76337,0.88498
1218.83483,0.88729
1216.90630,0.88803
1214.97776,0.88708
1213.04923,0.88447
1211.12069,0.88114
1209.19215,0.87849
1207.26362,0.87691
1205.33508,0.87533
1203.40655,0.87220
1201.47801,0.86619
1199.54947,0.85558
1197.62094,0.83754
1195.69240,0.80997
1193.76387,0.77583
1191.83533,0.74210
1189.90679,0.71465
1187.97826,0.69612
1186.04972,0.68041
1184.12118,0.65476
1182.19265,0.61772
1180.26411,0.58245
1178.33558,0.56122
1176.40704,0.55540
1174.47850,0.55540
1172.54997,0.54686
1170.62143,0.52000
1168.69290,0.47435
1166.76436,0.41877
1164.83582,0.36824
1162.90729,0.33339
1160.97875,0.31287
1159.05021,0.30451
1157.12168,0.31497
1155.19314,0.34783
1153.26461,0.39341
1151.33607,0.43689
1149.40753,0.46639
1147.47900,0.47323
1145.55046,0.45647
1143.62193,0.42800
1141.69339,0.40482
1139.76485,0.39632
1137.83632,0.40037
1135.90778,0.40745
1133.97924,0.40753
1132.05071,0.39587
1130.12217,0.37285
1128.19364,0.34178
1126.26510,0.30856
1124.33656,0.28078
1122.40803,0.26502
1120.47949,0.26433
1118.55096,0.27777
1116.62242,0.30098
1114.69388,0.32747
1112.76535,0.35105
1110.83681,0.36882
1108.90828,0.38456
1106.97974,0.40634
1105.05120,0.43634
1103.12267,0.46882
1101.19413,0.49896
1099.26559,0.52617
1097.33706,0.55062
1095.40852,0.57189
1093.47999,0.59019
1091.55145,0.60676
1089.62291,0.62193
1087.69438,0.63368
1085.76584,0.63946
1083.83731,0.64009
1081.90877,0.63927
1079.98023,0.63937
1078.05170,0.64317
1076.12316,0.65556
1074.19462,0.67667
1072.26609,0.69985
1070.33755,0.71902
1068.40902,0.73281
1066.48048,0.74292
1064.55194,0.75161
1062.62341,0.76029
1060.69487,0.76929
1058.76634,0.77824
1056.83780,0.78661
1054.90926,0.79406
1052.98073,0.80059
1051.05219,0.80630
1049.12366,0.81139
1047.19512,0.81621
1045.26658,0.82079
1043.33805,0.82431
1041.40951,0.82338
1039.48097,0.81354
1037.55244,0.80032
1035.62390,0.79867
1033.69537,0.81107
1031.76683,0.82585
1029.83829,0.83662
1027.90976,0.84442
1025.98122,0.85039
1024.05269,0.85510
1022.12415,0.85915
1020.19561,0.86306
1018.26708,0.86669
1016.33854,0.86849
1014.41000,0.86396
1012.48147,0.84246
1010.55293,0.79741
1008.62440,0.75195
1006.69586,0.74241
1004.76732,0.76739
1002.83879,0.79549
1000.91025,0.80801
998.98172,0.80728
997.05318,0.80320
995.12464,0.79958
993.19611,0.79404
991.26757,0.78524
989.33904,0.77069
987.41050,0.74620
985.48196,0.71063
983.55343,0.66632
981.62489,0.61675
979.69635,0.56668
977.76782,0.51712
975.83928,0.46129
973.91075,0.40145
971.98221,0.35615
970.05367,0.33915
968.12514,0.34949
966.19660,0.37523
964.26807,0.39922
962.33953,0.41771
960.41099,0.44336
958.48246,0.48213
956.55392,0.52633
954.62538,0.56787
952.69685,0.60364
950.76831,0.63320
948.83978,0.65755
946.91124,0.67810
944.98270,0.69611
943.05417,0.71225
941.12563,0.72667
939.19710,0.73952
937.26856,0.75084
935.34002,0.76081
933.41149,0.76973
931.48295,0.77658
929.55442,0.77828
927.62588,0.77543
925.69734,0.77569
923.76881,0.78274
921.84027,0.78998
919.91173,0.78731
917.98320,0.76466
916.05466,0.72435
914.12613,0.69625
912.19759,0.70647
910.26905,0.74048
908.34052,0.76966
906.41198,0.78569
904.48345,0.79342
902.55491,0.79781
900.62637,0.80165
898.69784,0.80516
896.76930,0.80649
894.84076,0.80322
892.91223,0.78854
890.98369,0.74709
889.05516,0.66457
887.12662,0.56106
885.19808,0.50281
883.26955,0.52594
881.34101,0.58033
879.41248,0.60263
877.48394,0.58385
875.55540,0.55107
873.62687,0.53658
871.69833,0.55584
869.76980,0.59874
867.84126,0.64613
865.91272,0.68678
863.98419,0.71787
862.05565,0.73951
860.12711,0.75177
858.19858,0.75542
856.27004,0.75678
854.34151,0.76429
852.41297,0.77683
850.48443,0.78501
848.55590,0.78189
846.62736,0.76517
844.69883,0.73606
842.77029,0.70502
840.84175,0.69115
838.91322,0.70359
836.98468,0.73114
835.05614,0.75815
833.12761,0.77843
831.19907,0.79247
829.27054,0.80227
827.34200,0.80962
825.41346,0.81570
823.48493,0.82103
821.55639,0.82582
819.62786,0.83042
817.69932,0.83513
815.77078,0.84010
813.84225,0.84527
811.91371,0.85044
809.98517,0.85527
808.05664,0.85920
806.12810,0.86214
804.19957,0.86442
802.27103,0.86609
800.34249,0.86679
798.41396,0.86638
796.48542,0.86528
794.55689,0.86372
792.62835,0.86186
790.69981,0.85993
788.77128,0.85811
786.84274,0.85581
784.91421,0.84929
782.98567,0.82639
781.05713,0.77312
779.12860,0.70351
777.20006,0.65373
775.27152,0.62511
773.34299,0.58621
771.41445,0.53465
769.48592,0.50107
767.55738,0.50231
765.62884,0.52191
763.70031,0.53818
761.77177,0.55505
759.84324,0.58713
757.91470,0.63195
755.98616,0.67443
754.05763,0.70589
752.12909,0.73016
750.20055,0.75449
748.27202,0.77953
746.34348,0.80079
744.41495,0.81612
742.48641,0.82580
740.55787,0.82734
738.62934,0.81474
736.70080,0.79087
734.77227,0.76460
732.84373,0.72645
730.91519,0.68291
728.98666,0.68259
727.05812,0.73466
725.12959,0.78968
723.20105,0.82105
721.27251,0.83769
719.34398,0.84845
717.41544,0.85467
715.48690,0.85464
713.55837,0.84482
711.62983,0.81937
709.70130,0.76660
707.77276,0.67424
705.84422,0.56605
703.91569,0.50460
701.98715,0.51677
700.05862,0.57312
698.13008,0.64280
696.20154,0.70784
694.27301,0.75605
692.34447,0.78660
690.41593,0.80589
688.48740,0.81963
686.55886,0.83050
684.63033,0.83920
682.70179,0.84550
680.77325,0.84709
678.84472,0.83518
676.91618,0.78871
674.98765,0.70018
673.05911,0.61722
671.13057,0.59404
669.20204,0.64778
667.27350,0.73849
665.34497,0.77601
663.41643,0.77858
661.48789,0.76173
659.55936,0.73542
657.63082,0.72670
655.70228,0.74523
653.77375,0.77312
651.84521,0.79314
649.91668,0.79865
647.98814,0.78962
646.05960,0.77159
644.13107,0.75179
642.20253,0.74020
640.27400,0.74679
638.34546,0.76850
636.41692,0.79061
634.48839,0.80335
632.55985,0.80669
630.63131,0.80468
628.70278,0.80159
626.77424,0.80081
624.84571,0.80429
622.91717,0.81143
620.98863,0.81997
619.06010,0.82825
617.13156,0.83640
615.20303,0.84418
613.27449,0.84940
611.34595,0.85085
609.41742,0.84900
607.48888,0.84479
605.56035,0.83924
603.63181,0.83295
601.70327,0.82605
599.77474,0.81838
597.84620,0.81017
595.91766,0.80177
593.98913,0.79313
592.06059,0.78419
590.13206,0.77617
588.20352,0.77048
586.27498,0.76697
584.34645,0.76545
582.41791,0.76597
580.48938,0.76804
578.56084,0.77061
576.63230,0.77237
574.70377,0.77215
572.77523,0.77022
570.84669,0.76859
568.91816,0.76882
566.98962,0.77098
565.06109,0.77428
563.13255,0.77820
561.20401,0.78221
559.27548,0.78589
557.34694,0.78914
555.41841,0.79194
553.48987,0.79396
551.56133,0.79463
549.63280,0.79322
547.70426,0.78909
545.77573,0.78433
543.84719,0.78305
541.91865,0.78528
539.99012,0.78707
538.06158,0.78526
536.13304,0.77893
534.20451,0.76783
532.27597,0.75094
530.34744,0.72545
528.41890,0.68525
526.49036,0.61989
524.56183,0.53894
522.63329,0.47586
520.70476,0.44351
518.77622,0.43083
516.84768,0.40645
514.91915,0.36407
512.99061,0.34418
511.06207,0.37408
509.13354,0.44084
507.20500,0.51521
505.27647,0.57663
503.34793,0.62220
501.41939,0.65825
499.49086,0.68459
497.56232,0.70367
495.63379,0.71971
493.70525,0.73426
491.77671,0.74821
489.84818,0.75997
487.91964,0.76830
485.99110,0.77438
484.06257,0.77974
482.13403,0.78454
480.20550,0.78882
478.27696,0.79249
476.34842,0.79350
474.41989,0.78547
472.49135,0.75789
470.56282,0.72426
468.63428,0.71175
466.70574,0.71942
464.77721,0.73280
462.84867,0.73977
460.92014,0.73329
458.99160,0.71924
457.06306,0.72280
455.13453,0.74967
453.20599,0.77943
451.27745,0.80232
449.34892,0.81552
447.42038,0.82181
445.49185,0.81912
443.56331,0.79537
441.63477,0.74645
439.70624,0.70649
437.77770,0.70411
435.84917,0.73508
433.92063,0.77247
431.99209,0.79653
430.06356,0.80938
428.13502,0.81539
426.20648,0.81315
424.27795,0.79623
422.34941,0.76888
420.42088,0.75115
418.49234,0.77031
416.56380,0.80297
414.63527,0.82091
412.70673,0.83369
410.77820,0.84342
408.84966,0.85103
406.92112,0.85581
404.99259,0.85532
403.06405,0.85100
401.13552,0.84707
399.20698,0.84615
