3997.85540,0.99305
3995.92686,0.99314
3993.99833,0.99316
3992.06979,0.99311
3990.14125,0.99306
3988.21272,0.99306
3986.28418,0.99304
3984.35565,0.99302
3982.42711,0.99302
3980.49857,0.99306
3978.57004,0.99305
3976.64150,0.99299
3974.71297,0.99296
3972.78443,0.99296
3970.85589,0.99295
3968.92736,0.99295
3966.99882,0.99298
3965.07029,0.99296
3963.14175,0.99288
3961.21321,0.99279
3959.28468,0.99278
3957.35614,0.99287
3955.42760,0.99293
3953.49907,0.99286
3951.57053,0.99274
3949.64200,0.99271
3947.71346,0.99277
3945.78492,0.99279
3943.85639,0.99276
3941.92785,0.99275
3939.99932,0.99278
3938.07078,0.99285
3936.14224,0.99288
3934.21371,0.99285
3932.28517,0.99286
3930.35663,0.99286
3928.42810,0.99277
3926.49956,0.99268
3924.57103,0.99267
3922.64249,0.99262
3920.71395,0.99248
3918.78542,0.99235
3916.85688,0.99239
3914.92835,0.99255
3912.99981,0.99268
3911.07127,0.99273
3909.14274,0.99263
3907.21420,0.99233
3905.28566,0.99193
3903.35713,0.99180
3901.42859,0.99203
3899.50006,0.99234
3897.57152,0.99263
3895.64298,0.99264
3893.71445,0.99235
3891.78591,0.99218
3889.85738,0.99231
3887.92884,0.99222
3886.00030,0.99194
3884.07177,0.99184
3882.14323,0.99195
3880.21470,0.99236
3878.28616,0.99274
3876.35762,0.99269
3874.42909,0.99235
3872.50055,0.99204
3870.57201,0.99193
3868.64348,0.99207
3866.71494,0.99216
3864.78641,0.99211
3862.85787,0.99222
3860.92933,0.99238
3859.00080,0.99234
3857.07226,0.99211
3855.14373,0.99188
3853.21519,0.99214
3851.28665,0.99253
3849.35812,0.99268
3847.42958,0.99278
3845.50104,0.99276
3843.57251,0.99256
3841.64397,0.99213
3839.71544,0.99155
3837.78690,0.99156
3835.85836,0.99227
3833.92983,0.99273
3832.00129,0.99280
3830.07276,0.99263
3828.14422,0.99238
3826.21568,0.99223
3824.28715,0.99217
3822.35861,0.99210
3820.43008,0.99229
3818.50154,0.99251
3816.57300,0.99256
3814.64447,0.99282
3812.71593,0.99311
3810.78739,0.99315
3808.85886,0.99286
3806.93032,0.99248
3805.00179,0.99236
3803.07325,0.99228
3801.14471,0.99231
3799.21618,0.99252
3797.28764,0.99271
3795.35911,0.99296
3793.43057,0.99310
3791.50203,0.99320
3789.57350,0.99335
3787.64496,0.99334
3785.71642,0.99319
3783.78789,0.99323
3781.85935,0.99335
3779.93082,0.99338
3778.00228,0.99341
3776.07374,0.99338
3774.14521,0.99323
3772.21667,0.99295
3770.28814,0.99268
3768.35960,0.99268
3766.43106,0.99278
3764.50253,0.99282
3762.57399,0.99273
3760.64546,0.99254
3758.71692,0.99261
3756.78838,0.99294
3754.85985,0.99289
3752.93131,0.99227
3751.00277,0.99137
3749.07424,0.99135
3747.14570,0.99158
3745.21717,0.99166
3743.28863,0.99165
3741.36009,0.99128
3739.43156,0.99069
3737.50302,0.98992
3735.57449,0.98868
3733.64595,0.98747
3731.71741,0.98726
3729.78888,0.98736
3727.86034,0.98737
3725.93180,0.98737
3724.00327,0.98753
3722.07473,0.98794
3720.14620,0.98870
3718.21766,0.98968
3716.28912,0.99047
3714.36059,0.99071
3712.43205,0.99000
3710.50352,0.98857
3708.57498,0.98821
3706.64644,0.98824
3704.71791,0.98809
3702.78937,0.98798
3700.86084,0.98809
3698.93230,0.98812
3697.00376,0.98799
3695.07523,0.98778
3693.14669,0.98740
3691.21815,0.98719
3689.28962,0.98803
3687.36108,0.98892
3685.43255,0.98913
3683.50401,0.98925
3681.57547,0.98926
3679.64694,0.98903
3677.71840,0.98872
3675.78987,0.98890
3673.86133,0.98966
3671.93279,0.98998
3670.00426,0.99001
3668.07572,0.99026
3666.14718,0.99060
3664.21865,0.99083
3662.29011,0.99094
3660.36158,0.99096
3658.43304,0.99083
3656.50450,0.99054
3654.57597,0.99022
3652.64743,0.98980
3650.71890,0.98905
3648.79036,0.98856
3646.86182,0.98923
3644.93329,0.98948
3643.00475,0.98934
3641.07622,0.98909
3639.14768,0.98887
3637.21914,0.98869
3635.29061,0.98836
3633.36207,0.98774
3631.43353,0.98710
3629.50500,0.98669
3627.57646,0.98660
3625.64793,0.98654
3623.71939,0.98655
3621.79085,0.98672
3619.86232,0.98694
3617.93378,0.98719
3616.00525,0.98738
3614.07671,0.98746
3612.14817,0.98740
3610.21964,0.98712
3608.29110,0.98671
3606.36256,0.98651
3604.43403,0.98646
3602.50549,0.98627
3600.57696,0.98608
3598.64842,0.98624
3596.71988,0.98636
3594.79135,0.98614
3592.86281,0.98607
3590.93428,0.98619
3589.00574,0.98620
3587.07720,0.98633
3585.14867,0.98655
3583.22013,0.98657
3581.29160,0.98658
3579.36306,0.98673
3577.43452,0.98684
3575.50599,0.98673
3573.57745,0.98654
3571.64891,0.98641
3569.72038,0.98611
3567.79184,0.98550
3565.86331,0.98513
3563.93477,0.98522
3562.00623,0.98524
3560.07770,0.98515
3558.14916,0.98496
3556.22063,0.98464
3554.29209,0.98412
3552.36355,0.98348
3550.43502,0.98296
3548.50648,0.98247
3546.57794,0.98183
3544.64941,0.98116
3542.72087,0.98051
3540.79234,0.97959
3538.86380,0.97840
3536.93526,0.97698
3535.00673,0.97534
3533.07819,0.97357
3531.14966,0.97150
3529.22112,0.96887
3527.29258,0.96577
3525.36405,0.96252
3523.43551,0.95890
3521.50697,0.95518
3519.57844,0.95184
3517.64990,0.94862
3515.72137,0.94545
3513.79283,0.94249
3511.86429,0.93978
3509.93576,0.93729
3508.00722,0.93521
3506.07869,0.93372
3504.15015,0.93253
3502.22161,0.93171
3500.29308,0.93156
3498.36454,0.93179
3496.43601,0.93228
3494.50747,0.93310
3492.57893,0.93417
3490.65040,0.93531
3488.72186,0.93662
3486.79332,0.93820
3484.86479,0.93989
3482.93625,0.94173
3481.00772,0.94375
3479.07918,0.94565
3477.15064,0.94740
3475.22211,0.94918
3473.29357,0.95087
3471.36504,0.95231
3469.43650,0.95366
3467.50796,0.95504
3465.57943,0.95635
3463.65089,0.95756
3461.72235,0.95874
3459.79382,0.95990
3457.86528,0.96097
3455.93675,0.96192
3454.00821,0.96273
3452.07967,0.96347
3450.15114,0.96414
3448.22260,0.96471
3446.29407,0.96515
3444.36553,0.96538
3442.43699,0.96541
3440.50846,0.96530
3438.57992,0.96494
3436.65139,0.96408
3434.72285,0.96261
3432.79431,0.96052
3430.86578,0.95774
3428.93724,0.95419
3427.00870,0.94988
3425.08017,0.94489
3423.15163,0.93923
3421.22310,0.93279
3419.29456,0.92630
3417.36602,0.92068
3415.43749,0.91583
3413.50895,0.91171
3411.58042,0.90866
3409.65188,0.90676
3407.72334,0.90605
3405.79481,0.90638
3403.86627,0.90746
3401.93773,0.90914
3400.00920,0.91134
3398.08066,0.91386
3396.15213,0.91637
3394.22359,0.91871
3392.29505,0.92106
3390.36652,0.92341
3388.43798,0.92555
3386.50945,0.92747
3384.58091,0.92922
3382.65237,0.93090
3380.72384,0.93257
3378.79530,0.93427
3376.86677,0.93598
3374.93823,0.93772
3373.00969,0.93945
3371.08116,0.94117
3369.15262,0.94297
3367.22408,0.94484
3365.29555,0.94670
3363.36701,0.94856
3361.43848,0.95051
3359.50994,0.95240
3357.58140,0.95418
3355.65287,0.95591
3353.72433,0.95752
3351.79580,0.95899
3349.86726,0.96040
3347.93872,0.96168
3346.01019,0.96283
3344.08165,0.96394
3342.15311,0.96501
3340.22458,0.96602
3338.29604,0.96700
3336.36751,0.96795
3334.43897,0.96882
3332.51043,0.96963
3330.58190,0.97043
3328.65336,0.97127
3326.72483,0.97212
3324.79629,0.97288
3322.86775,0.97348
3320.93922,0.97407
3319.01068,0.97472
3317.08215,0.97533
3315.15361,0.97585
3313.22507,0.97633
3311.29654,0.97683
3309.36800,0.97729
3307.43946,0.97763
3305.51093,0.97790
3303.58239,0.97824
3301.65386,0.97864
3299.72532,0.97897
3297.79678,0.97923
3295.86825,0.97946
3293.93971,0.97965
3292.01118,0.97979
3290.08264,0.97987
3288.15410,0.97987
3286.22557,0.97981
3284.29703,0.97977
3282.36849,0.97980
3280.43996,0.97984
3278.51142,0.97993
3276.58289,0.98014
3274.65435,0.98035
3272.72581,0.98044
3270.79728,0.98037
3268.86874,0.98018
3266.94021,0.97987
3265.01167,0.97948
3263.08313,0.97913
3261.15460,0.97892
3259.22606,0.97893
3257.29753,0.97916
3255.36899,0.97916
3253.44045,0.97872
3251.51192,0.97833
3249.58338,0.97846
3247.65484,0.97884
3245.72631,0.97879
3243.79777,0.97816
3241.86924,0.97750
3239.94070,0.97720
3238.01216,0.97727
3236.08363,0.97763
3234.15509,0.97785
3232.22656,0.97746
3230.29802,0.97655
3228.36948,0.97558
3226.44095,0.97485
3224.51241,0.97433
3222.58387,0.97401
3220.65534,0.97396
3218.72680,0.97393
3216.79827,0.97369
3214.86973,0.97347
3212.94119,0.97326
3211.01266,0.97305
3209.08412,0.97311
3207.15559,0.97348
3205.22705,0.97390
3203.29851,0.97435
3201.36998,0.97485
3199.44144,0.97533
3197.51290,0.97584
3195.58437,0.97641
3193.65583,0.97702
3191.72730,0.97777
3189.79876,0.97860
3187.87022,0.97927
3185.94169,0.97973
3184.01315,0.98014
3182.08462,0.98061
3180.15608,0.98114
3178.22754,0.98161
3176.29901,0.98192
3174.37047,0.98216
3172.44194,0.98249
3170.51340,0.98289
3168.58486,0.98319
3166.65633,0.98338
3164.72779,0.98358
3162.79925,0.98374
3160.87072,0.98375
3158.94218,0.98372
3157.01365,0.98380
3155.08511,0.98391
3153.15657,0.98393
3151.22804,0.98387
3149.29950,0.98387
3147.37097,0.98393
3145.44243,0.98401
3143.51389,0.98410
3141.58536,0.98418
3139.65682,0.98420
3137.72828,0.98412
3135.79975,0.98395
3133.87121,0.98383
3131.94268,0.98378
3130.01414,0.98362
3128.08560,0.98330
3126.15707,0.98297
3124.22853,0.98266
3122.30000,0.98226
3120.37146,0.98167
3118.44292,0.98095
3116.51439,0.98020
3114.58585,0.97958
3112.65732,0.97914
3110.72878,0.97882
3108.80024,0.97862
3106.87171,0.97855
3104.94317,0.97845
3103.01463,0.97815
3101.08610,0.97765
3099.15756,0.97705
3097.22903,0.97624
3095.30049,0.97528
3093.37195,0.97441
3091.44342,0.97384
3089.51488,0.97366
3087.58635,0.97380
3085.65781,0.97395
3083.72927,0.97382
3081.80074,0.97315
3079.87220,0.97172
3077.94366,0.96978
3076.01513,0.96784
3074.08659,0.96614
3072.15806,0.96474
3070.22952,0.96371
3068.30098,0.96305
3066.37245,0.96282
3064.44391,0.96312
3062.51538,0.96394
3060.58684,0.96518
3058.65830,0.96668
3056.72977,0.96827
3054.80123,0.96986
3052.87270,0.97144
3050.94416,0.97299
3049.01562,0.97446
3047.08709,0.97583
3045.15855,0.97702
3043.23001,0.97773
3041.30148,0.97781
3039.37294,0.97730
3037.44441,0.97629
3035.51587,0.97503
3033.58733,0.97384
3031.65880,0.97290
3029.73026,0.97222
3027.80173,0.97184
3025.87319,0.97212
3023.94465,0.97341
3022.01612,0.97561
3020.08758,0.97812
3018.15904,0.98025
3016.23051,0.98179
3014.30197,0.98291
3012.37344,0.98376
3010.44490,0.98442
3008.51636,0.98493
3006.58783,0.98526
3004.65929,0.98552
3002.73076,0.98585
3000.80222,0.98627
2998.87368,0.98675
2996.94515,0.98733
2995.01661,0.98805
2993.08808,0.98870
2991.15954,0.98911
2989.23100,0.98939
2987.30247,0.98962
2985.37393,0.98977
2983.44539,0.98997
2981.51686,0.99026
2979.58832,0.99051
2977.65979,0.99058
2975.73125,0.99053
2973.80271,0.99041
2971.87418,0.99014
2969.94564,0.98972
2968.01711,0.98934
2966.08857,0.98916
2964.16003,0.98914
2962.23150,0.98916
2960.30296,0.98922
2958.37442,0.98934
2956.44589,0.98952
2954.51735,0.98970
2952.58882,0.98980
2950.66028,0.98978
2948.73174,0.98975
2946.80321,0.98976
2944.87467,0.98973
2942.94614,0.98953
2941.01760,0.98920
2939.08906,0.98886
2937.16053,0.98853
2935.23199,0.98822
2933.30346,0.98802
2931.37492,0.98793
2929.44638,0.98784
2927.51785,0.98776
2925.58931,0.98783
2923.66077,0.98810
2921.73224,0.98853
2919.80370,0.98901
2917.87517,0.98941
2915.94663,0.98970
2914.01809,0.98992
2912.08956,0.99006
2910.16102,0.99004
2908.23249,0.98985
2906.30395,0.98965
2904.37541,0.98946
2902.44688,0.98916
2900.51834,0.98895
2898.58980,0.98912
2896.66127,0.98945
2894.73273,0.98941
2892.80420,0.98908
2890.87566,0.98891
2888.94712,0.98898
2887.01859,0.98914
2885.09005,0.98935
2883.16152,0.98961
2881.23298,0.98989
2879.30444,0.99025
2877.37591,0.99072
2875.44737,0.99117
2873.51883,0.99134
2871.59030,0.99118
2869.66176,0.99093
2867.73323,0.99084
2865.80469,0.99090
2863.87615,0.99099
2861.94762,0.99105
2860.01908,0.99110
2858.09055,0.99118
2856.16201,0.99127
2854.23347,0.99137
2852.30494,0.99156
2850.37640,0.99188
2848.44787,0.99226
2846.51933,0.99260
2844.59079,0.99290
2842.66226,0.99321
2840.73372,0.99357
2838.80518,0.99393
2836.87665,0.99413
2834.94811,0.99419
2833.01958,0.99420
2831.09104,0.99420
2829.16250,0.99415
2827.23397,0.99414
2825.30543,0.99421
2823.37690,0.99428
2821.44836,0.99428
2819.51982,0.99426
2817.59129,0.99428
2815.66275,0.99431
2813.73421,0.99434
2811.80568,0.99441
2809.87714,0.99443
2807.94861,0.99426
2806.02007,0.99402
2804.09153,0.99392
2802.16300,0.99399
2800.23446,0.99417
2798.30593,0.99428
2796.37739,0.99413
2794.44885,0.99392
2792.52032,0.99389
2790.59178,0.99391
2788.66325,0.99359
2786.73471,0.99294
2784.80617,0.99233
2782.87764,0.99196
2780.94910,0.99168
2779.02056,0.99159
2777.09203,0.99194
2775.16349,0.99235
2773.23496,0.99208
2771.30642,0.99128
2769.37788,0.99068
2767.44935,0.99054
2765.52081,0.99061
2763.59228,0.99067
2761.66374,0.99082
2759.73520,0.99118
2757.80667,0.99160
2755.87813,0.99190
2753.94959,0.99221
2752.02106,0.99276
2750.09252,0.99347
2748.16399,0.99391
2746.23545,0.99397
2744.30691,0.99390
2742.37838,0.99396
2740.44984,0.99414
2738.52131,0.99434
2736.59277,0.99443
2734.66423,0.99439
2732.73570,0.99434
2730.80716,0.99439
2728.87863,0.99452
2726.95009,0.99461
2725.02155,0.99460
2723.09302,0.99449
2721.16448,0.99436
2719.23594,0.99426
2717.30741,0.99423
2715.37887,0.99423
2713.45034,0.99419
2711.52180,0.99410
2709.59326,0.99400
2707.66473,0.99396
2705.73619,0.99396
2703.80766,0.99396
2701.87912,0.99398
2699.95058,0.99403
2698.02205,0.99406
2696.09351,0.99398
2694.16497,0.99384
2692.23644,0.99381
2690.30790,0.99387
2688.37937,0.99393
2686.45083,0.99389
2684.52229,0.99378
2682.59376,0.99368
2680.66522,0.99361
2678.73669,0.99349
2676.80815,0.99328
2674.87961,0.99304
2672.95108,0.99278
2671.02254,0.99256
2669.09401,0.99239
2667.16547,0.99218
2665.23693,0.99187
2663.30840,0.99153
2661.37986,0.99124
2659.45132,0.99104
2657.52279,0.99085
2655.59425,0.99065
2653.66572,0.99049
2651.73718,0.99037
2649.80864,0.99022
2647.88011,0.99002
2645.95157,0.98977
2644.02304,0.98950
2642.09450,0.98919
2640.16596,0.98887
2638.23743,0.98867
2636.30889,0.98868
2634.38035,0.98888
2632.45182,0.98919
2630.52328,0.98960
2628.59475,0.99014
2626.66621,0.99074
2624.73767,0.99128
2622.80914,0.99174
2620.88060,0.99218
2618.95207,0.99260
2617.02353,0.99301
2615.09499,0.99333
2613.16646,0.99351
2611.23792,0.99363
2609.30939,0.99378
2607.38085,0.99394
2605.45231,0.99402
2603.52378,0.99401
2601.59524,0.99397
2599.66670,0.99396
2597.73817,0.99397
2595.80963,0.99390
2593.88110,0.99374
2591.95256,0.99344
2590.02402,0.99301
2588.09549,0.99266
2586.16695,0.99241
2584.23842,0.99218
2582.30988,0.99206
2580.38134,0.99207
2578.45281,0.99212
2576.52427,0.99217
2574.59573,0.99215
2572.66720,0.99206
2570.73866,0.99198
2568.81013,0.99188
2566.88159,0.99175
2564.95305,0.99163
2563.02452,0.99149
2561.09598,0.99131
2559.16745,0.99116
2557.23891,0.99106
2555.31037,0.99095
2553.38184,0.99075
2551.45330,0.99051
2549.52476,0.99034
2547.59623,0.99032
2545.66769,0.99049
2543.73916,0.99068
2541.81062,0.99078
2539.88208,0.99090
2537.95355,0.99107
2536.02501,0.99127
2534.09648,0.99160
2532.16794,0.99197
2530.23940,0.99225
2528.31087,0.99247
2526.38233,0.99273
2524.45380,0.99305
2522.52526,0.99339
2520.59672,0.99369
2518.66819,0.99389
2516.73965,0.99404
2514.81111,0.99417
2512.88258,0.99427
2510.95404,0.99432
2509.02551,0.99439
2507.09697,0.99450
2505.16843,0.99468
2503.23990,0.99487
2501.31136,0.99496
2499.38283,0.99497
2497.45429,0.99496
2495.52575,0.99496
2493.59722,0.99498
2491.66868,0.99497
2489.74014,0.99495
2487.81161,0.99497
2485.88307,0.99507
2483.95454,0.99525
2482.02600,0.99538
2480.09746,0.99540
2478.16893,0.99535
2476.24039,0.99533
2474.31186,0.99533
2472.38332,0.99532
2470.45478,0.99532
2468.52625,0.99534
2466.59771,0.99534
2464.66918,0.99536
2462.74064,0.99544
2460.81210,0.99550
2458.88357,0.99546
2456.95503,0.99534
2455.02649,0.99521
2453.09796,0.99512
2451.16942,0.99508
2449.24089,0.99506
2447.31235,0.99498
2445.38381,0.99484
2443.45528,0.99474
2441.52674,0.99465
2439.59821,0.99453
2437.66967,0.99451
2435.74113,0.99462
2433.81260,0.99471
2431.88406,0.99467
2429.95552,0.99458
2428.02699,0.99456
2426.09845,0.99466
2424.16992,0.99485
2422.24138,0.99500
2420.31284,0.99495
2418.38431,0.99470
2416.45577,0.99437
2414.52724,0.99408
2412.59870,0.99386
2410.67016,0.99362
2408.74163,0.99323
2406.81309,0.99274
2404.88456,0.99236
2402.95602,0.99214
2401.02748,0.99197
2399.09895,0.99177
2397.17041,0.99158
2395.24187,0.99135
2393.31334,0.99109
2391.38480,0.99084
2389.45627,0.99043
2387.52773,0.98948
2385.59919,0.98766
2383.67066,0.98477
2381.74212,0.98078
2379.81359,0.97592
2377.88505,0.97036
2375.95651,0.96400
2374.02798,0.95660
2372.09944,0.94818
2370.17090,0.93925
2368.24237,0.93048
2366.31383,0.92240
2364.38530,0.91544
2362.45676,0.91043
2360.52822,0.90845
2358.59969,0.91022
2356.67115,0.91593
2354.74262,0.92480
2352.81408,0.93551
2350.88554,0.94493
2348.95701,0.94913
2347.02847,0.94663
2345.09994,0.93889
2343.17140,0.93200
2341.24286,0.93040
2339.31433,0.93191
2337.38579,0.93387
2335.45725,0.93540
2333.52872,0.93654
2331.60018,0.93773
2329.67165,0.93943
2327.74311,0.94159
2325.81457,0.94409
2323.88604,0.94695
2321.95750,0.95052
2320.02897,0.95483
2318.10043,0.95915
2316.17189,0.96275
2314.24336,0.96522
2312.31482,0.96690
2310.38628,0.96881
2308.45775,0.97142
2306.52921,0.97426
2304.60068,0.97665
2302.67214,0.97832
2300.74360,0.97947
2298.81507,0.98060
2296.88653,0.98190
2294.95800,0.98326
2293.02946,0.98447
2291.10092,0.98552
2289.17239,0.98650
2287.24385,0.98748
2285.31532,0.98843
2283.38678,0.98912
2281.45824,0.98934
2279.52971,0.98923
2277.60117,0.98905
2275.67263,0.98890
2273.74410,0.98880
2271.81556,0.98874
2269.88703,0.98872
2267.95849,0.98877
2266.02995,0.98878
2264.10142,0.98870
2262.17288,0.98868
2260.24435,0.98880
2258.31581,0.98893
2256.38727,0.98891
2254.45874,0.98883
2252.53020,0.98884
2250.60166,0.98894
2248.67313,0.98894
2246.74459,0.98869
2244.81606,0.98839
2242.88752,0.98828
2240.95898,0.98829
2239.03045,0.98832
2237.10191,0.98835
2235.17338,0.98850
2233.24484,0.98893
2231.31630,0.98957
2229.38777,0.99006
2227.45923,0.99031
2225.53070,0.99065
2223.60216,0.99122
2221.67362,0.99187
2219.74509,0.99254
2217.81655,0.99306
2215.88801,0.99324
2213.95948,0.99325
2212.03094,0.99339
2210.10241,0.99370
2208.17387,0.99385
2206.24533,0.99371
2204.31680,0.99370
2202.38826,0.99429
2200.45973,0.99509
2198.53119,0.99561
2196.60265,0.99581
2194.67412,0.99569
2192.74558,0.99540
2190.81704,0.99533
2188.88851,0.99540
2186.95997,0.99546
2185.03144,0.99562
2183.10290,0.99586
2181.17436,0.99616
2179.24583,0.99633
2177.31729,0.99629
2175.38876,0.99630
2173.46022,0.99646
2171.53168,0.99652
2169.60315,0.99633
2167.67461,0.99605
2165.74607,0.99593
2163.81754,0.99592
2161.88900,0.99586
2159.96047,0.99585
2158.03193,0.99620
2156.10339,0.99639
2154.17486,0.99591
2152.24632,0.99527
2150.31779,0.99493
2148.38925,0.99481
2146.46071,0.99495
2144.53218,0.99529
2142.60364,0.99537
2140.67511,0.99513
2138.74657,0.99502
2136.81803,0.99512
2134.88950,0.99498
2132.96096,0.99454
2131.03242,0.99421
2129.10389,0.99411
2127.17535,0.99409
2125.24682,0.99411
2123.31828,0.99416
2121.38974,0.99424
2119.46121,0.99439
2117.53267,0.99457
2115.60414,0.99466
2113.67560,0.99461
2111.74706,0.99462
2109.81853,0.99472
2107.88999,0.99481
2105.96145,0.99494
2104.03292,0.99503
2102.10438,0.99498
2100.17585,0.99497
2098.24731,0.99512
2096.31877,0.99531
2094.39024,0.99544
2092.46170,0.99551
2090.53317,0.99558
2088.60463,0.99561
2086.67609,0.99564
2084.74756,0.99576
2082.81902,0.99599
2080.89049,0.99610
2078.96195,0.99609
2077.03341,0.99610
2075.10488,0.99616
2073.17634,0.99625
2071.24780,0.99633
2069.31927,0.99639
2067.39073,0.99660
2065.46220,0.99703
2063.53366,0.99736
2061.60512,0.99730
2059.67659,0.99698
2057.74805,0.99679
2055.81952,0.99685
2053.89098,0.99673
2051.96244,0.99639
2050.03391,0.99634
2048.10537,0.99672
2046.17683,0.99694
2044.24830,0.99673
2042.31976,0.99646
2040.39123,0.99659
2038.46269,0.99695
2036.53415,0.99712
2034.60562,0.99700
2032.67708,0.99661
2030.74855,0.99619
2028.82001,0.99601
2026.89147,0.99595
2024.96294,0.99591
2023.03440,0.99600
2021.10587,0.99645
2019.17733,0.99723
2017.24879,0.99763
2015.32026,0.99709
2013.39172,0.99630
2011.46318,0.99584
2009.53465,0.99549
2007.60611,0.99511
2005.67758,0.99469
2003.74904,0.99428
2001.82050,0.99415
1999.89197,0.99433
1997.96343,0.99453
1996.03490,0.99462
1994.10636,0.99463
1992.17782,0.99466
1990.24929,0.99486
1988.32075,0.99479
1986.39221,0.99420
1984.46368,0.99370
1982.53514,0.99349
1980.60661,0.99310
1978.67807,0.99255
1976.74953,0.99229
1974.82100,0.99229
1972.89246,0.99220
1970.96393,0.99200
1969.03539,0.99182
1967.10685,0.99148
1965.17832,0.99083
1963.24978,0.99012
1961.32125,0.98960
1959.39271,0.98922
1957.46417,0.98903
1955.53564,0.98942
1953.60710,0.99032
1951.67856,0.99131
1949.75003,0.99235
1947.82149,0.99330
1945.89296,0.99380
1943.96442,0.99383
1942.03588,0.99392
1940.10735,0.99439
1938.17881,0.99487
1936.25028,0.99505
1934.32174,0.99493
1932.39320,0.99474
1930.46467,0.99469
1928.53613,0.99474
1926.60759,0.99472
1924.67906,0.99467
1922.75052,0.99478
1920.82199,0.99495
1918.89345,0.99506
1916.96491,0.99490
1915.03638,0.99448
1913.10784,0.99402
1911.17931,0.99345
1909.25077,0.99264
1907.32223,0.99191
1905.39370,0.99149
1903.46516,0.99123
1901.53663,0.99095
1899.60809,0.99062
1897.67955,0.99025
1895.75102,0.98969
1893.82248,0.98893
1891.89394,0.98822
1889.96541,0.98766
1888.03687,0.98750
1886.10834,0.98785
1884.17980,0.98859
1882.25126,0.98956
1880.32273,0.99054
1878.39419,0.99140
1876.46566,0.99213
1874.53712,0.99274
1872.60858,0.99316
1870.68005,0.99334
1868.75151,0.99335
1866.82297,0.99335
1864.89444,0.99329
1862.96590,0.99311
1861.03737,0.99278
1859.10883,0.99235
1857.18029,0.99194
1855.25176,0.99170
1853.32322,0.99155
1851.39469,0.99134
1849.46615,0.99104
1847.53761,0.99074
1845.60908,0.99044
1843.68054,0.99013
1841.75200,0.98995
1839.82347,0.98986
1837.89493,0.98970
1835.96640,0.98958
1834.03786,0.98957
1832.10932,0.98951
1830.18079,0.98924
1828.25225,0.98883
1826.32372,0.98850
1824.39518,0.98814
1822.46664,0.98775
1820.53811,0.98726
1818.60957,0.98657
1816.68104,0.98589
1814.75250,0.98548
1812.82396,0.98546
1810.89543,0.98598
1808.96689,0.98691
1807.03835,0.98774
1805.10982,0.98832
1803.18128,0.98886
1801.25275,0.98947
1799.32421,0.99007
1797.39567,0.99046
1795.46714,0.99064
1793.53860,0.99072
1791.61007,0.99076
1789.68153,0.99078
1787.75299,0.99068
1785.82446,0.99042
1783.89592,0.98994
1781.96738,0.98923
1780.03885,0.98829
1778.11031,0.98737
1776.18178,0.98656
1774.25324,0.98554
1772.32470,0.98395
1770.39617,0.98237
1768.46763,0.98135
1766.53910,0.98044
1764.61056,0.97970
1762.68202,0.97912
1760.75349,0.97864
1758.82495,0.97834
1756.89642,0.97806
1754.96788,0.97778
1753.03934,0.97759
1751.11081,0.97747
1749.18227,0.97737
1747.25373,0.97742
1745.32520,0.97767
1743.39666,0.97790
1741.46813,0.97809
1739.53959,0.97836
1737.61105,0.97870
1735.68252,0.97913
1733.75398,0.97992
1731.82545,0.98080
1729.89691,0.98154
1727.96837,0.98236
1726.03984,0.98316
1724.11130,0.98401
1722.18276,0.98475
1720.25423,0.98521
1718.32569,0.98561
1716.39716,0.98608
1714.46862,0.98646
1712.54008,0.98658
1710.61155,0.98654
1708.68301,0.98638
1706.75448,0.98596
1704.82594,0.98532
1702.89740,0.98489
1700.96887,0.98460
1699.04033,0.98403
1697.11180,0.98343
1695.18326,0.98289
1693.25472,0.98245
1691.32619,0.98206
1689.39765,0.98156
1687.46911,0.98114
1685.54058,0.98078
1683.61204,0.98019
1681.68351,0.97968
1679.75497,0.97928
1677.82643,0.97892
1675.89790,0.97841
1673.96936,0.97774
1672.04083,0.97695
1670.11229,0.97588
1668.18375,0.97470
1666.25522,0.97378
1664.32668,0.97249
1662.39814,0.97008
1660.46961,0.96751
1658.54107,0.96540
1656.61254,0.96336
1654.68400,0.96010
1652.75546,0.95100
1650.82693,0.94480
1648.89839,0.94055
1646.96986,0.92823
1645.04132,0.91367
1643.11278,0.90474
1641.18425,0.89562
1639.25571,0.88586
1637.32718,0.87266
1635.39864,0.84734
1633.47010,0.82715
1631.54157,0.81279
1629.61303,0.79244
1627.68449,0.76204
1625.75596,0.73166
1623.82742,0.70772
1621.89889,0.69708
1619.97035,0.70175
1618.04181,0.70993
1616.11328,0.71177
1614.18474,0.70919
1612.25621,0.71196
1610.32767,0.72451
1608.39913,0.74793
1606.47060,0.77146
1604.54206,0.78765
1602.61352,0.80489
1600.68499,0.83122
1598.75645,0.86014
1596.82792,0.88409
1594.89938,0.90142
1592.97084,0.91189
1591.04231,0.91701
1589.11377,0.91897
1587.18524,0.92002
1585.25670,0.92251
1583.32816,0.92723
1581.39963,0.93226
1579.47109,0.93544
1577.54256,0.93861
1575.61402,0.94653
1573.68548,0.95349
1571.75695,0.95744
1569.82841,0.96220
1567.89987,0.96683
1565.97134,0.96906
1564.04280,0.97028
1562.11427,0.97091
1560.18573,0.97097
1558.25719,0.97048
1556.32866,0.96997
1554.40012,0.96977
1552.47159,0.96973
1550.54305,0.96996
1548.61451,0.97029
1546.68598,0.97068
1544.75744,0.97143
1542.82890,0.97290
1540.90037,0.97520
1538.97183,0.97577
1537.04330,0.97550
1535.11476,0.97531
1533.18622,0.97501
1531.25769,0.97454
1529.32915,0.97384
1527.40062,0.97243
1525.47208,0.97021
1523.54354,0.96836
1521.61501,0.96618
1519.68647,0.96292
1517.75793,0.95630
1515.82940,0.94391
1513.90086,0.93094
1511.97233,0.91909
1510.04379,0.90897
1508.11525,0.90985
1506.18672,0.93337
1504.25818,0.94300
1502.32965,0.94648
1500.40111,0.94989
1498.47257,0.95350
1496.54404,0.95674
1494.61550,0.95816
1492.68697,0.95801
1490.75843,0.95566
1488.82989,0.94547
1486.90136,0.92650
1484.97282,0.90760
1483.04428,0.89621
1481.11575,0.90087
1479.18721,0.91779
1477.25868,0.93418
1475.33014,0.94617
1473.40160,0.95405
1471.47307,0.95712
1469.54453,0.95718
1467.61600,0.95627
1465.68746,0.95450
1463.75892,0.95226
1461.83039,0.95037
1459.90185,0.94784
1457.97331,0.93375
1456.04478,0.89211
1454.11624,0.85380
1452.18771,0.80906
1450.25917,0.75388
1448.33063,0.70059
1446.40210,0.67424
1444.47356,0.67681
1442.54503,0.69288
1440.61649,0.71988
1438.68795,0.76147
1436.75942,0.82708
1434.83088,0.88549
1432.90235,0.91075
1430.97381,0.92618
1429.04527,0.93898
1427.11674,0.94596
1425.18820,0.94942
1423.25966,0.95147
1421.33113,0.95215
1419.40259,0.95133
1417.47406,0.94864
1415.54552,0.94578
1413.61698,0.94213
1411.68845,0.93648
1409.75991,0.92846
1407.83138,0.91864
1405.90284,0.90390
1403.97430,0.88222
1402.04577,0.86075
1400.11723,0.83646
1398.18869,0.80083
1396.26016,0.74773
1394.33162,0.67465
1392.40309,0.60822
1390.47455,0.55634
1388.54601,0.49656
1386.61748,0.42230
1384.68894,0.37109
1382.76041,0.35491
1380.83187,0.37090
1378.90333,0.42082
1376.97480,0.49339
1375.04626,0.58716
1373.11773,0.68856
1371.18919,0.75980
1369.26065,0.81195
1367.33212,0.85514
1365.40358,0.88355
1363.47504,0.90465
1361.54651,0.92318
1359.61797,0.93444
1357.68944,0.94089
1355.76090,0.94600
1353.83236,0.95008
1351.90383,0.95296
1349.97529,0.95512
1348.04676,0.95675
1346.11822,0.95790
1344.18968,0.95841
1342.26115,0.95846
1340.33261,0.95799
1338.40407,0.95690
1336.47554,0.95559
1334.54700,0.95384
1332.61847,0.95111
1330.68993,0.94616
1328.76139,0.93771
1326.83286,0.92422
1324.90432,0.90434
1322.97579,0.87889
1321.04725,0.85117
1319.11871,0.82653
1317.19018,0.81250
1315.26164,0.81140
1313.33311,0.82021
1311.40457,0.83539
1309.47603,0.85302
1307.54750,0.87048
1305.61896,0.88509
1303.69042,0.89484
1301.76189,0.89946
1299.83335,0.89864
1297.90482,0.89170
1295.97628,0.87780
1294.04774,0.85616
1292.11921,0.82491
1290.19067,0.77883
1288.26214,0.71198
1286.33360,0.62772
1284.40506,0.53970
1282.47653,0.45954
1280.54799,0.39393
1278.61945,0.34286
1276.69092,0.29866
1274.76238,0.25510
1272.83385,0.21332
1270.90531,0.18330
1268.97677,0.17984
1267.04824,0.20977
1265.11970,0.26917
1263.19117,0.35052
1261.26263,0.44704
1259.33409,0.54443
1257.40556,0.62266
1255.47702,0.67659
1253.54849,0.71562
1251.61995,0.74972
1249.69141,0.78169
1247.76288,0.80887
1245.83434,0.82936
1243.90580,0.84387
1241.97727,0.85422
1240.04873,0.86294
1238.12020,0.87214
1236.19166,0.88197
1234.26312,0.89109
1232.33459,0.89816
1230.40605,0.90274
1228.47752,0.90496
1226.54898,0.90513
1224.62044,0.90367
1222.69191,0.90097
1220.76337,0.89709
1218.83483,0.89155
1216.90630,0.88373
1214.97776,0.87329
1213.04923,0.85945
1211.12069,0.84043
1209.19215,0.81399
1207.26362,0.77849
1205.33508,0.73386
1203.40655,0.68205
1201.47801,0.62556
1199.54947,0.56654
1197.62094,0.50775
1195.69240,0.45428
1193.76387,0.41336
1191.83533,0.39277
1189.90679,0.39722
1187.97826,0.42311
1186.04972,0.45779
1184.12118,0.48639
1182.19265,0.50138
1180.26411,0.50389
1178.33558,0.49825
1176.40704,0.48709
1174.47850,0.47082
1172.54997,0.45065
1170.62143,0.42890
1168.69290,0.40737
1166.76436,0.38733
1164.83582,0.37046
1162.90729,0.35866
1160.97875,0.35280
1159.05021,0.35291
1157.12168,0.35976
1155.19314,0.37411
1153.26461,0.39310
1151.33607,0.40971
1149.40753,0.41731
1147.47900,0.41355
1145.55046,0.40002
1143.62193,0.37950
1141.69339,0.35451
1139.76485,0.32716
1137.83632,0.29932
1135.90778,0.27244
1133.97924,0.24739
1132.05071,0.22393
1130.12217,0.20099
1128.19364,0.17813
1126.26510,0.15612
1124.33656,0.13659
1122.40803,0.12160
1120.47949,0.11316
1118.55096,0.11287
1116.62242,0.12107
1114.69388,0.13614
1112.76535,0.15478
1110.83681,0.17416
1108.90828,0.19365
1106.97974,0.21473
1105.05120,0.23950
1103.12267,0.26907
1101.19413,0.30304
1099.26559,0.33978
1097.33706,0.37745
1095.40852,0.41463
1093.47999,0.45009
1091.55145,0.48274
1089.62291,0.51166
1087.69438,0.53612
1085.76584,0.55553
1083.83731,0.56956
1081.90877,0.57738
1079.98023,0.57597
1078.05170,0.56156
1076.12316,0.53772
1074.19462,0.51877
1072.26609,0.51652
1070.33755,0.52871
1068.40902,0.54744
1066.48048,0.57016
1064.55194,0.59751
1062.62341,0.62850
1060.69487,0.66030
1058.76634,0.69008
1056.83780,0.71630
1054.90926,0.73871
1052.98073,0.75765
1051.05219,0.77339
1049.12366,0.78623
1047.19512,0.79661
1045.26658,0.80512
1043.33805,0.81196
1041.40951,0.81538
1039.48097,0.81137
1037.55244,0.79651
1035.62390,0.77503
1033.69537,0.76103
1031.76683,0.76606
1029.83829,0.78587
1027.90976,0.80766
1025.98122,0.82486
1024.05269,0.83830
1022.12415,0.85019
1020.19561,0.86076
1018.26708,0.86876
1016.33854,0.87151
1014.41000,0.85983
1012.48147,0.81194
1010.55293,0.72814
1008.62440,0.67232
1006.69586,0.69823
1004.76732,0.76947
1002.83879,0.82574
1000.91025,0.84851
998.98172,0.83920
997.05318,0.80717
995.12464,0.77828
993.19611,0.77624
991.26757,0.79756
989.33904,0.82344
987.41050,0.84392
985.48196,0.85915
983.55343,0.87128
981.62489,0.88085
979.69635,0.88758
977.76782,0.89135
975.83928,0.89212
973.91075,0.88997
971.98221,0.88496
970.05367,0.87596
968.12514,0.85835
966.19660,0.82304
964.26807,0.75906
962.33953,0.66276
960.41099,0.54946
958.48246,0.45101
956.55392,0.39576
954.62538,0.39340
952.69685,0.43666
950.76831,0.50849
948.83978,0.58821
946.91124,0.65900
944.98270,0.71362
943.05417,0.75312
941.12563,0.78158
939.19710,0.80265
937.26856,0.81848
935.34002,0.83035
933.41149,0.83925
931.48295,0.84601
929.55442,0.85081
927.62588,0.85281
925.69734,0.85069
923.76881,0.84377
921.84027,0.83366
919.91173,0.82511
917.98320,0.82387
916.05466,0.83202
914.12613,0.84580
912.19759,0.85924
910.26905,0.86928
908.34052,0.87617
906.41198,0.88089
904.48345,0.88391
902.55491,0.88527
900.62637,0.88482
898.69784,0.88238
896.76930,0.87761
894.84076,0.86970
892.91223,0.85750
890.98369,0.83984
889.05516,0.81600
887.12662,0.78584
885.19808,0.75012
883.26955,0.71101
881.34101,0.67142
879.41248,0.63355
877.48394,0.59835
875.55540,0.56625
873.62687,0.53860
871.69833,0.51826
869.76980,0.50909
867.84126,0.51473
865.91272,0.53649
863.98419,0.56971
862.05565,0.59880
860.12711,0.59927
858.19858,0.56710
856.27004,0.54432
854.34151,0.57318
852.41297,0.63984
850.48443,0.70438
848.55590,0.75000
846.62736,0.78076
844.69883,0.80402
842.77029,0.82334
840.84175,0.83878
838.91322,0.85001
836.98468,0.85774
835.05614,0.86325
833.12761,0.86741
831.19907,0.87068
829.27054,0.87332
827.34200,0.87550
825.41346,0.87736
823.48493,0.87902
821.55639,0.88053
819.62786,0.88178
817.69932,0.88284
815.77078,0.88378
813.84225,0.88456
811.91371,0.88520
809.98517,0.88574
808.05664,0.88630
806.12810,0.88690
804.19957,0.88760
802.27103,0.88828
800.34249,0.88873
798.41396,0.88899
796.48542,0.88906
794.55689,0.88888
792.62835,0.88824
790.69981,0.88673
788.77128,0.88388
786.84274,0.87880
784.91421,0.86915
782.98567,0.85061
781.05713,0.81863
779.12860,0.77207
777.20006,0.71667
775.27152,0.66429
773.34299,0.62746
771.41445,0.61235
769.48592,0.61377
767.55738,0.61853
765.62884,0.61759
763.70031,0.61377
761.77177,0.61619
759.84324,0.63147
757.91470,0.66036
755.98616,0.69796
754.05763,0.73626
752.12909,0.76866
750.20055,0.79313
748.27202,0.81107
746.34348,0.82465
744.41495,0.83553
742.48641,0.84466
740.55787,0.85207
738.62934,0.85363
736.70080,0.83162
734.77227,0.76208
732.84373,0.66902
730.91519,0.62889
728.98666,0.66557
727.05812,0.71532
725.12959,0.71440
723.20105,0.66357
721.27251,0.62591
719.34398,0.65094
717.41544,0.70519
715.48690,0.73780
713.55837,0.73745
711.62983,0.70599
709.70130,0.64433
707.77276,0.55739
705.84422,0.45812
703.91569,0.37159
701.98715,0.33198
700.05862,0.35839
698.13008,0.43386
696.20154,0.51735
694.27301,0.58169
692.34447,0.62630
690.41593,0.65806
688.48740,0.68107
686.55886,0.69650
684.63033,0.70551
682.70179,0.70857
680.77325,0.70020
678.84472,0.66957
676.91618,0.62039
674.98765,0.58660
673.05911,0.58830
671.13057,0.59214
669.20204,0.54350
667.27350,0.48351
665.34497,0.51561
663.41643,0.58366
661.48789,0.64092
659.55936,0.67408
657.63082,0.69209
655.70228,0.70350
653.77375,0.71142
651.84521,0.71683
649.91668,0.71988
647.98814,0.72061
646.05960,0.71824
644.13107,0.71048
642.20253,0.69777
640.27400,0.68849
638.34546,0.69028
636.41692,0.69997
634.48839,0.71001
632.55985,0.71754
630.63131,0.72307
628.70278,0.72703
626.77424,0.72978
624.84571,0.73161
622.91717,0.73297
620.98863,0.73426
619.06010,0.73608
617.13156,0.73833
615.20303,0.73961
613.27449,0.73948
611.34595,0.73904
609.41742,0.73908
607.48888,0.73924
605.56035,0.73922
603.63181,0.73908
601.70327,0.73886
599.77474,0.73842
597.84620,0.73787
595.91766,0.73767
593.98913,0.73804
592.06059,0.73883
590.13206,0.73943
588.20352,0.73937
586.27498,0.73890
584.34645,0.73830
582.41791,0.73735
580.48938,0.73622
578.56084,0.73580
576.63230,0.73620
574.70377,0.73680
572.77523,0.73719
570.84669,0.73741
568.91816,0.73781
566.98962,0.73824
565.06109,0.73826
563.13255,0.73785
561.20401,0.73717
559.27548,0.73632
557.34694,0.73509
555.41841,0.73283
553.48987,0.72807
551.56133,0.71818
549.63280,0.70079
547.70426,0.67818
545.77573,0.65916
543.84719,0.65097
541.91865,0.65008
539.99012,0.64862
538.06158,0.64548
536.13304,0.64690
534.20451,0.65734
532.27597,0.67272
530.34744,0.68541
528.41890,0.69077
526.49036,0.68667
524.56183,0.67495
522.63329,0.66369
520.70476,0.65810
518.77622,0.65969
516.84768,0.66703
514.91915,0.67507
512.99061,0.68133
511.06207,0.68655
509.13354,0.69144
507.20500,0.69628
505.27647,0.70081
503.34793,0.70469
501.41939,0.70826
499.49086,0.71121
497.56232,0.71316
495.63379,0.71440
493.70525,0.71532
491.77671,0.71564
489.84818,0.71419
487.91964,0.71022
485.99110,0.70226
484.06257,0.68774
482.13403,0.66776
480.20550,0.64813
478.27696,0.63484
476.34842,0.63140
474.41989,0.63607
472.49135,0.64591
470.56282,0.65565
468.63428,0.65987
466.70574,0.65632
464.77721,0.64430
462.84867,0.62570
460.92014,0.60411
458.99160,0.58435
457.06306,0.57966
455.13453,0.59915
453.20599,0.63028
451.27745,0.65939
449.34892,0.67770
447.42038,0.68927
445.49185,0.69768
443.56331,0.70271
441.63477,0.70597
439.70624,0.70879
437.77770,0.71096
435.84917,0.71195
433.92063,0.71216
431.99209,0.71258
430.06356,0.71291
428.13502,0.71250
426.20648,0.71187
424.27795,0.71173
422.34941,0.71249
420.42088,0.71376
418.49234,0.71212
416.56380,0.70610
414.63527,0.70075
412.70673,0.69815
410.77820,0.69695
408.84966,0.69398
406.92112,0.69056
404.99259,0.68843
403.06405,0.68769
401.13552,0.68833
399.20698,0.68589
