3997.85540,0.98039
3995.92686,0.98034
3993.99833,0.98026
3992.06979,0.98013
3990.14125,0.98009
3988.21272,0.98021
3986.28418,0.98040
3984.35565,0.98044
3982.42711,0.98033
3980.49857,0.98025
3978.57004,0.98023
3976.64150,0.98020
3974.71297,0.98020
3972.78443,0.98025
3970.85589,0.98031
3968.92736,0.98037
3966.99882,0.98045
3965.07029,0.98055
3963.14175,0.98064
3961.21321,0.98070
3959.28468,0.98079
3957.35614,0.98094
3955.42760,0.98101
3953.49907,0.98096
3951.57053,0.98096
3949.64200,0.98100
3947.71346,0.98091
3945.78492,0.98090
3943.85639,0.98104
3941.92785,0.98112
3939.99932,0.98107
3938.07078,0.98108
3936.14224,0.98114
3934.21371,0.98114
3932.28517,0.98107
3930.35663,0.98109
3928.42810,0.98115
3926.49956,0.98117
3924.57103,0.98119
3922.64249,0.98123
3920.71395,0.98115
3918.78542,0.98099
3916.85688,0.98105
3914.92835,0.98128
3912.99981,0.98138
3911.07127,0.98129
3909.14274,0.98113
3907.21420,0.98095
3905.28566,0.98078
3903.35713,0.98069
3901.42859,0.98064
3899.50006,0.98056
3897.57152,0.98055
3895.64298,0.98057
3893.71445,0.98052
3891.78591,0.98047
3889.85738,0.98063
3887.92884,0.98079
3886.00030,0.98085
3884.07177,0.98081
3882.14323,0.98079
3880.21470,0.98093
3878.28616,0.98106
3876.35762,0.98109
3874.42909,0.98110
3872.50055,0.98113
3870.57201,0.98110
3868.64348,0.98105
3866.71494,0.98090
3864.78641,0.98073
3862.85787,0.98086
3860.92933,0.98112
3859.00080,0.98117
3857.07226,0.98098
3855.14373,0.98053
3853.21519,0.98004
3851.28665,0.98041
3849.35812,0.98089
3847.42958,0.98112
3845.50104,0.98119
3843.57251,0.98126
3841.64397,0.98135
3839.71544,0.98123
3837.78690,0.98099
3835.85836,0.98113
3833.92983,0.98137
3832.00129,0.98143
3830.07276,0.98137
3828.14422,0.98126
3826.21568,0.98117
3824.28715,0.98115
3822.35861,0.98110
3820.43008,0.98109
3818.50154,0.98122
3816.57300,0.98133
3814.64447,0.98151
3812.71593,0.98169
3810.78739,0.98172
3808.85886,0.98157
3806.93032,0.98138
3805.00179,0.98141
3803.07325,0.98143
3801.14471,0.98142
3799.21618,0.98156
3797.28764,0.98170
3795.35911,0.98179
3793.43057,0.98185
3791.50203,0.98186
3789.57350,0.98180
3787.64496,0.98168
3785.71642,0.98158
3783.78789,0.98164
3781.85935,0.98173
3779.93082,0.98181
3778.00228,0.98198
3776.07374,0.98211
3774.14521,0.98206
3772.21667,0.98184
3770.28814,0.98166
3768.35960,0.98175
3766.43106,0.98185
3764.50253,0.98171
3762.57399,0.98151
3760.64546,0.98143
3758.71692,0.98160
3756.78838,0.98181
3754.85985,0.98173
3752.93131,0.98138
3751.00277,0.98092
3749.07424,0.98113
3747.14570,0.98162
3745.21717,0.98176
3743.28863,0.98152
3741.36009,0.98139
3739.43156,0.98144
3737.50302,0.98149
3735.57449,0.98150
3733.64595,0.98163
3731.71741,0.98164
3729.78888,0.98158
3727.86034,0.98164
3725.93180,0.98175
3724.00327,0.98168
3722.07473,0.98170
3720.14620,0.98199
3718.21766,0.98213
3716.28912,0.98201
3714.36059,0.98177
3712.43205,0.98150
3710.50352,0.98149
3708.57498,0.98180
3706.64644,0.98198
3704.71791,0.98202
3702.78937,0.98200
3700.86084,0.98201
3698.93230,0.98202
3697.00376,0.98201
3695.07523,0.98197
3693.14669,0.98185
3691.21815,0.98156
3689.28962,0.98135
3687.36108,0.98166
3685.43255,0.98190
3683.50401,0.98197
3681.57547,0.98198
3679.64694,0.98181
3677.71840,0.98136
3675.78987,0.98104
3673.86133,0.98151
3671.93279,0.98189
3670.00426,0.98189
3668.07572,0.98196
3666.14718,0.98219
3664.21865,0.98237
3662.29011,0.98244
3660.36158,0.98236
3658.43304,0.98214
3656.50450,0.98190
3654.57597,0.98189
3652.64743,0.98198
3650.71890,0.98190
3648.79036,0.98138
3646.86182,0.98141
3644.93329,0.98186
3643.00475,0.98219
3641.07622,0.98230
3639.14768,0.98227
3637.21914,0.98219
3635.29061,0.98212
3633.36207,0.98203
3631.43353,0.98180
3629.50500,0.98134
3627.57646,0.98127
3625.64793,0.98166
3623.71939,0.98189
3621.79085,0.98193
3619.86232,0.98185
3617.93378,0.98173
3616.00525,0.98170
3614.07671,0.98182
3612.14817,0.98197
3610.21964,0.98186
3608.29110,0.98156
3606.36256,0.98145
3604.43403,0.98145
3602.50549,0.98136
3600.57696,0.98132
3598.64842,0.98148
3596.71988,0.98169
3594.79135,0.98185
3592.86281,0.98188
3590.93428,0.98171
3589.00574,0.98137
3587.07720,0.98130
3585.14867,0.98182
3583.22013,0.98224
3581.29160,0.98234
3579.36306,0.98221
3577.43452,0.98202
3575.50599,0.98191
3573.57745,0.98189
3571.64891,0.98193
3569.72038,0.98193
3567.79184,0.98163
3565.86331,0.98128
3563.93477,0.98142
3562.00623,0.98166
3560.07770,0.98183
3558.14916,0.98196
3556.22063,0.98207
3554.29209,0.98202
3552.36355,0.98182
3550.43502,0.98170
3548.50648,0.98164
3546.57794,0.98156
3544.64941,0.98168
3542.72087,0.98191
3540.79234,0.98204
3538.86380,0.98208
3536.93526,0.98203
3535.00673,0.98199
3533.07819,0.98199
3531.14966,0.98193
3529.22112,0.98178
3527.29258,0.98172
3525.36405,0.98180
3523.43551,0.98194
3521.50697,0.98209
3519.57844,0.98218
3517.64990,0.98216
3515.72137,0.98204
3513.79283,0.98194
3511.86429,0.98192
3509.93576,0.98192
3508.00722,0.98187
3506.07869,0.98186
3504.15015,0.98195
3502.22161,0.98214
3500.29308,0.98226
3498.36454,0.98223
3496.43601,0.98215
3494.50747,0.98217
3492.57893,0.98226
3490.65040,0.98228
3488.72186,0.98222
3486.79332,0.98220
3484.86479,0.98220
3482.93625,0.98223
3481.00772,0.98234
3479.07918,0.98238
3477.15064,0.98230
3475.22211,0.98228
3473.29357,0.98235
3471.36504,0.98237
3469.43650,0.98239
3467.50796,0.98246
3465.57943,0.98240
3463.65089,0.98220
3461.72235,0.98209
3459.79382,0.98215
3457.86528,0.98224
3455.93675,0.98233
3454.00821,0.98241
3452.07967,0.98243
3450.15114,0.98242
3448.22260,0.98237
3446.29407,0.98236
3444.36553,0.98243
3442.43699,0.98252
3440.50846,0.98255
3438.57992,0.98252
3436.65139,0.98253
3434.72285,0.98257
3432.79431,0.98261
3430.86578,0.98262
3428.93724,0.98264
3427.00870,0.98263
3425.08017,0.98253
3423.15163,0.98239
3421.22310,0.98238
3419.29456,0.98250
3417.36602,0.98256
3415.43749,0.98251
3413.50895,0.98247
3411.58042,0.98259
3409.65188,0.98272
3407.72334,0.98265
3405.79481,0.98247
3403.86627,0.98240
3401.93773,0.98244
3400.00920,0.98252
3398.08066,0.98256
3396.15213,0.98248
3394.22359,0.98232
3392.29505,0.98223
3390.36652,0.98225
3388.43798,0.98222
3386.50945,0.98207
3384.58091,0.98192
3382.65237,0.98190
3380.72384,0.98197
3378.79530,0.98200
3376.86677,0.98189
3374.93823,0.98169
3373.00969,0.98148
3371.08116,0.98123
3369.15262,0.98096
3367.22408,0.98077
3365.29555,0.98064
3363.36701,0.98046
3361.43848,0.98026
3359.50994,0.98013
3357.58140,0.98001
3355.65287,0.97980
3353.72433,0.97953
3351.79580,0.97931
3349.86726,0.97916
3347.93872,0.97891
3346.01019,0.97854
3344.08165,0.97820
3342.15311,0.97786
3340.22458,0.97746
3338.29604,0.97703
3336.36751,0.97659
3334.43897,0.97614
3332.51043,0.97567
3330.58190,0.97520
3328.65336,0.97467
3326.72483,0.97405
3324.79629,0.97338
3322.86775,0.97263
3320.93922,0.97181
3319.01068,0.97094
3317.08215,0.96993
3315.15361,0.96876
3313.22507,0.96748
3311.29654,0.96605
3309.36800,0.96440
3307.43946,0.96248
3305.51093,0.96036
3303.58239,0.95806
3301.65386,0.95540
3299.72532,0.95238
3297.79678,0.94909
3295.86825,0.94561
3293.93971,0.94221
3292.01118,0.93915
3290.08264,0.93661
3288.15410,0.93458
3286.22557,0.93298
3284.29703,0.93173
3282.36849,0.93068
3280.43996,0.92983
3278.51142,0.92925
3276.58289,0.92897
3274.65435,0.92910
3272.72581,0.92969
3270.79728,0.93064
3268.86874,0.93193
3266.94021,0.93363
3265.01167,0.93581
3263.08313,0.93831
3261.15460,0.94082
3259.22606,0.94328
3257.29753,0.94566
3255.36899,0.94793
3253.44045,0.95007
3251.51192,0.95201
3249.58338,0.95370
3247.65484,0.95514
3245.72631,0.95640
3243.79777,0.95761
3241.86924,0.95875
3239.94070,0.95982
3238.01216,0.96082
3236.08363,0.96176
3234.15509,0.96262
3232.22656,0.96335
3230.29802,0.96403
3228.36948,0.96477
3226.44095,0.96547
3224.51241,0.96600
3222.58387,0.96640
3220.65534,0.96682
3218.72680,0.96729
3216.79827,0.96775
3214.86973,0.96825
3212.94119,0.96880
3211.01266,0.96934
3209.08412,0.96995
3207.15559,0.97057
3205.22705,0.97112
3203.29851,0.97163
3201.36998,0.97208
3199.44144,0.97242
3197.51290,0.97277
3195.58437,0.97312
3193.65583,0.97346
3191.72730,0.97376
3189.79876,0.97398
3187.87022,0.97413
3185.94169,0.97425
3184.01315,0.97437
3182.08462,0.97453
3180.15608,0.97472
3178.22754,0.97488
3176.29901,0.97502
3174.37047,0.97517
3172.44194,0.97525
3170.51340,0.97528
3168.58486,0.97534
3166.65633,0.97543
3164.72779,0.97551
3162.79925,0.97550
3160.87072,0.97539
3158.94218,0.97537
3157.01365,0.97561
3155.08511,0.97608
3153.15657,0.97653
3151.22804,0.97665
3149.29950,0.97644
3147.37097,0.97625
3145.44243,0.97629
3143.51389,0.97647
3141.58536,0.97668
3139.65682,0.97674
3137.72828,0.97660
3135.79975,0.97637
3133.87121,0.97619
3131.94268,0.97609
3130.01414,0.97601
3128.08560,0.97572
3126.15707,0.97514
3124.22853,0.97440
3122.30000,0.97356
3120.37146,0.97245
3118.44292,0.97108
3116.51439,0.96994
3114.58585,0.96957
3112.65732,0.96996
3110.72878,0.97078
3108.80024,0.97174
3106.87171,0.97261
3104.94317,0.97321
3103.01463,0.97353
3101.08610,0.97369
3099.15756,0.97377
3097.22903,0.97369
3095.30049,0.97350
3093.37195,0.97338
3091.44342,0.97341
3089.51488,0.97349
3087.58635,0.97360
3085.65781,0.97377
3083.72927,0.97401
3081.80074,0.97426
3079.87220,0.97451
3077.94366,0.97483
3076.01513,0.97519
3074.08659,0.97540
3072.15806,0.97543
3070.22952,0.97544
3068.30098,0.97554
3066.37245,0.97559
3064.44391,0.97540
3062.51538,0.97512
3060.58684,0.97494
3058.65830,0.97485
3056.72977,0.97478
3054.80123,0.97471
3052.87270,0.97458
3050.94416,0.97439
3049.01562,0.97425
3047.08709,0.97420
3045.15855,0.97416
3043.23001,0.97408
3041.30148,0.97382
3039.37294,0.97322
3037.44441,0.97226
3035.51587,0.97113
3033.58733,0.97005
3031.65880,0.96915
3029.73026,0.96852
3027.80173,0.96806
3025.87319,0.96734
3023.94465,0.96628
3022.01612,0.96539
3020.08758,0.96490
3018.15904,0.96451
3016.23051,0.96404
3014.30197,0.96370
3012.37344,0.96398
3010.44490,0.96538
3008.51636,0.96761
3006.58783,0.96984
3004.65929,0.97150
3002.73076,0.97249
3000.80222,0.97309
2998.87368,0.97349
2996.94515,0.97366
2995.01661,0.97357
2993.08808,0.97323
2991.15954,0.97266
2989.23100,0.97197
2987.30247,0.97118
2985.37393,0.97044
2983.44539,0.96996
2981.51686,0.96966
2979.58832,0.96919
2977.65979,0.96853
2975.73125,0.96795
2973.80271,0.96777
2971.87418,0.96807
2969.94564,0.96872
2968.01711,0.96947
2966.08857,0.97015
2964.16003,0.97060
2962.23150,0.97070
2960.30296,0.97045
2958.37442,0.96992
2956.44589,0.96913
2954.51735,0.96804
2952.58882,0.96658
2950.66028,0.96491
2948.73174,0.96341
2946.80321,0.96213
2944.87467,0.96084
2942.94614,0.95969
2941.01760,0.95900
2939.08906,0.95870
2937.16053,0.95875
2935.23199,0.95945
2933.30346,0.96089
2931.37492,0.96259
2929.44638,0.96387
2927.51785,0.96454
2925.58931,0.96488
2923.66077,0.96522
2921.73224,0.96572
2919.80370,0.96636
2917.87517,0.96701
2915.94663,0.96763
2914.01809,0.96813
2912.08956,0.96851
2910.16102,0.96888
2908.23249,0.96937
2906.30395,0.97010
2904.37541,0.97092
2902.44688,0.97158
2900.51834,0.97210
2898.58980,0.97267
2896.66127,0.97323
2894.73273,0.97359
2892.80420,0.97373
2890.87566,0.97379
2888.94712,0.97385
2887.01859,0.97391
2885.09005,0.97400
2883.16152,0.97412
2881.23298,0.97430
2879.30444,0.97455
2877.37591,0.97485
2875.44737,0.97513
2873.51883,0.97530
2871.59030,0.97528
2869.66176,0.97515
2867.73323,0.97500
2865.80469,0.97477
2863.87615,0.97442
2861.94762,0.97404
2860.01908,0.97356
2858.09055,0.97289
2856.16201,0.97208
2854.23347,0.97120
2852.30494,0.97014
2850.37640,0.96887
2848.44787,0.96760
2846.51933,0.96679
2844.59079,0.96710
2842.66226,0.96877
2840.73372,0.97116
2838.80518,0.97331
2836.87665,0.97478
2834.94811,0.97570
2833.01958,0.97634
2831.09104,0.97681
2829.16250,0.97714
2827.23397,0.97738
2825.30543,0.97765
2823.37690,0.97794
2821.44836,0.97816
2819.51982,0.97824
2817.59129,0.97824
2815.66275,0.97827
2813.73421,0.97837
2811.80568,0.97853
2809.87714,0.97866
2807.94861,0.97862
2806.02007,0.97846
2804.09153,0.97840
2802.16300,0.97856
2800.23446,0.97887
2798.30593,0.97903
2796.37739,0.97890
2794.44885,0.97873
2792.52032,0.97884
2790.59178,0.97911
2788.66325,0.97916
2786.73471,0.97894
2784.80617,0.97880
2782.87764,0.97886
2780.94910,0.97901
2779.02056,0.97918
2777.09203,0.97939
2775.16349,0.97956
2773.23496,0.97954
2771.30642,0.97942
2769.37788,0.97936
2767.44935,0.97931
2765.52081,0.97928
2763.59228,0.97935
2761.66374,0.97953
2759.73520,0.97971
2757.80667,0.97983
2755.87813,0.97988
2753.94959,0.97996
2752.02106,0.98013
2750.09252,0.98028
2748.16399,0.98028
2746.23545,0.98011
2744.30691,0.97989
2742.37838,0.97975
2740.44984,0.97973
2738.52131,0.97975
2736.59277,0.97969
2734.66423,0.97955
2732.73570,0.97948
2730.80716,0.97960
2728.87863,0.97991
2726.95009,0.98027
2725.02155,0.98044
2723.09302,0.98047
2721.16448,0.98052
2719.23594,0.98056
2717.30741,0.98058
2715.37887,0.98064
2713.45034,0.98077
2711.52180,0.98090
2709.59326,0.98095
2707.66473,0.98094
2705.73619,0.98097
2703.80766,0.98105
2701.87912,0.98108
2699.95058,0.98104
2698.02205,0.98097
2696.09351,0.98092
2694.16497,0.98090
2692.23644,0.98089
2690.30790,0.98090
2688.37937,0.98089
2686.45083,0.98084
2684.52229,0.98084
2682.59376,0.98095
2680.66522,0.98112
2678.73669,0.98116
2676.80815,0.98101
2674.87961,0.98082
2672.95108,0.98069
2671.02254,0.98054
2669.09401,0.98038
2667.16547,0.98032
2665.23693,0.98029
2663.30840,0.98025
2661.37986,0.98028
2659.45132,0.98032
2657.52279,0.98027
2655.59425,0.98020
2653.66572,0.98019
2651.73718,0.98019
2649.80864,0.98023
2647.88011,0.98033
2645.95157,0.98045
2644.02304,0.98066
2642.09450,0.98100
2640.16596,0.98134
2638.23743,0.98154
2636.30889,0.98160
2634.38035,0.98162
2632.45182,0.98165
2630.52328,0.98167
2628.59475,0.98172
2626.66621,0.98175
2624.73767,0.98171
2622.80914,0.98167
2620.88060,0.98171
2618.95207,0.98174
2617.02353,0.98174
2615.09499,0.98178
2613.16646,0.98180
2611.23792,0.98177
2609.30939,0.98176
2607.38085,0.98170
2605.45231,0.98157
2603.52378,0.98137
2601.59524,0.98117
2599.66670,0.98100
2597.73817,0.98078
2595.80963,0.98054
2593.88110,0.98037
2591.95256,0.98029
2590.02402,0.98027
2588.09549,0.98025
2586.16695,0.98021
2584.23842,0.98021
2582.30988,0.98026
2580.38134,0.98033
2578.45281,0.98043
2576.52427,0.98056
2574.59573,0.98064
2572.66720,0.98061
2570.73866,0.98051
2568.81013,0.98051
2566.88159,0.98063
2564.95305,0.98071
2563.02452,0.98066
2561.09598,0.98054
2559.16745,0.98038
2557.23891,0.98024
2555.31037,0.98016
2553.38184,0.98013
2551.45330,0.98021
2549.52476,0.98044
2547.59623,0.98076
2545.66769,0.98111
2543.73916,0.98132
2541.81062,0.98134
2539.88208,0.98135
2537.95355,0.98147
2536.02501,0.98165
2534.09648,0.98181
2532.16794,0.98180
2530.23940,0.98164
2528.31087,0.98149
2526.38233,0.98144
2524.45380,0.98144
2522.52526,0.98151
2520.59672,0.98161
2518.66819,0.98161
2516.73965,0.98146
2514.81111,0.98134
2512.88258,0.98127
2510.95404,0.98116
2509.02551,0.98105
2507.09697,0.98105
2505.16843,0.98107
2503.23990,0.98104
2501.31136,0.98099
2499.38283,0.98110
2497.45429,0.98141
2495.52575,0.98175
2493.59722,0.98193
2491.66868,0.98195
2489.74014,0.98197
2487.81161,0.98208
2485.88307,0.98217
2483.95454,0.98221
2482.02600,0.98227
2480.09746,0.98242
2478.16893,0.98255
2476.24039,0.98262
2474.31186,0.98274
2472.38332,0.98293
2470.45478,0.98302
2468.52625,0.98302
2466.59771,0.98308
2464.66918,0.98323
2462.74064,0.98335
2460.81210,0.98340
2458.88357,0.98345
2456.95503,0.98348
2455.02649,0.98349
2453.09796,0.98354
2451.16942,0.98361
2449.24089,0.98368
2447.31235,0.98374
2445.38381,0.98375
2443.45528,0.98375
2441.52674,0.98368
2439.59821,0.98353
2437.66967,0.98339
2435.74113,0.98323
2433.81260,0.98297
2431.88406,0.98280
2429.95552,0.98278
2428.02699,0.98277
2426.09845,0.98278
2424.16992,0.98291
2422.24138,0.98317
2420.31284,0.98343
2418.38431,0.98352
2416.45577,0.98350
2414.52724,0.98344
2412.59870,0.98334
2410.67016,0.98325
2408.74163,0.98323
2406.81309,0.98326
2404.88456,0.98322
2402.95602,0.98314
2401.02748,0.98313
2399.09895,0.98319
2397.17041,0.98318
2395.24187,0.98311
2393.31334,0.98305
2391.38480,0.98303
2389.45627,0.98304
2387.52773,0.98302
2385.59919,0.98295
2383.67066,0.98283
2381.74212,0.98270
2379.81359,0.98251
2377.88505,0.98222
2375.95651,0.98182
2374.02798,0.98127
2372.09944,0.98050
2370.17090,0.97956
2368.24237,0.97877
2366.31383,0.97818
2364.38530,0.97761
2362.45676,0.97728
2360.52822,0.97721
2358.59969,0.97689
2356.67115,0.97688
2354.74262,0.97796
2352.81408,0.97926
2350.88554,0.98001
2348.95701,0.98021
2347.02847,0.97992
2345.09994,0.97942
2343.17140,0.97925
2341.24286,0.97924
2339.31433,0.97910
2337.38579,0.97906
2335.45725,0.97907
2333.52872,0.97890
2331.60018,0.97885
2329.67165,0.97914
2327.74311,0.97947
2325.81457,0.97970
2323.88604,0.97983
2321.95750,0.97992
2320.02897,0.98007
2318.10043,0.98036
2316.17189,0.98063
2314.24336,0.98074
2312.31482,0.98074
2310.38628,0.98082
2308.45775,0.98104
2306.52921,0.98127
2304.60068,0.98136
2302.67214,0.98137
2300.74360,0.98143
2298.81507,0.98150
2296.88653,0.98144
2294.95800,0.98136
2293.02946,0.98137
2291.10092,0.98142
2289.17239,0.98147
2287.24385,0.98165
2285.31532,0.98191
2283.38678,0.98210
2281.45824,0.98225
2279.52971,0.98237
2277.60117,0.98244
2275.67263,0.98255
2273.74410,0.98267
2271.81556,0.98274
2269.88703,0.98269
2267.95849,0.98259
2266.02995,0.98283
2264.10142,0.98330
2262.17288,0.98333
2260.24435,0.98289
2258.31581,0.98264
2256.38727,0.98282
2254.45874,0.98303
2252.53020,0.98309
2250.60166,0.98321
2248.67313,0.98344
2246.74459,0.98363
2244.81606,0.98373
2242.88752,0.98370
2240.95898,0.98363
2239.03045,0.98367
2237.10191,0.98379
2235.17338,0.98382
2233.24484,0.98383
2231.31630,0.98403
2229.38777,0.98449
2227.45923,0.98489
2225.53070,0.98498
2223.60216,0.98497
2221.67362,0.98505
2219.74509,0.98524
2217.81655,0.98556
2215.88801,0.98588
2213.95948,0.98602
2212.03094,0.98591
2210.10241,0.98568
2208.17387,0.98555
2206.24533,0.98572
2204.31680,0.98592
2202.38826,0.98587
2200.45973,0.98592
2198.53119,0.98613
2196.60265,0.98608
2194.67412,0.98594
2192.74558,0.98611
2190.81704,0.98648
2188.88851,0.98669
2186.95997,0.98665
2185.03144,0.98662
2183.10290,0.98684
2181.17436,0.98717
2179.24583,0.98730
2177.31729,0.98718
2175.38876,0.98702
2173.46022,0.98687
2171.53168,0.98701
2169.60315,0.98746
2167.67461,0.98765
2165.74607,0.98733
2163.81754,0.98696
2161.88900,0.98680
2159.96047,0.98657
2158.03193,0.98616
2156.10339,0.98610
2154.17486,0.98641
2152.24632,0.98654
2150.31779,0.98646
2148.38925,0.98652
2146.46071,0.98664
2144.53218,0.98660
2142.60364,0.98655
2140.67511,0.98659
2138.74657,0.98652
2136.81803,0.98627
2134.88950,0.98607
2132.96096,0.98616
2131.03242,0.98642
2129.10389,0.98659
2127.17535,0.98657
2125.24682,0.98641
2123.31828,0.98628
2121.38974,0.98624
2119.46121,0.98622
2117.53267,0.98628
2115.60414,0.98647
2113.67560,0.98656
2111.74706,0.98644
2109.81853,0.98649
2107.88999,0.98671
2105.96145,0.98664
2104.03292,0.98624
2102.10438,0.98582
2100.17585,0.98555
2098.24731,0.98543
2096.31877,0.98540
2094.39024,0.98547
2092.46170,0.98567
2090.53317,0.98588
2088.60463,0.98603
2086.67609,0.98616
2084.74756,0.98631
2082.81902,0.98649
2080.89049,0.98658
2078.96195,0.98657
2077.03341,0.98654
2075.10488,0.98655
2073.17634,0.98662
2071.24780,0.98663
2069.31927,0.98647
2067.39073,0.98620
2065.46220,0.98606
2063.53366,0.98623
2061.60512,0.98659
2059.67659,0.98681
2057.74805,0.98680
2055.81952,0.98670
2053.89098,0.98659
2051.96244,0.98662
2050.03391,0.98684
2048.10537,0.98706
2046.17683,0.98713
2044.24830,0.98724
2042.31976,0.98770
2040.39123,0.98825
2038.46269,0.98839
2036.53415,0.98816
2034.60562,0.98810
2032.67708,0.98832
2030.74855,0.98848
2028.82001,0.98866
2026.89147,0.98874
2024.96294,0.98833
2023.03440,0.98781
2021.10587,0.98776
2019.17733,0.98795
2017.24879,0.98798
2015.32026,0.98790
2013.39172,0.98779
2011.46318,0.98778
2009.53465,0.98779
2007.60611,0.98770
2005.67758,0.98772
2003.74904,0.98782
2001.82050,0.98782
1999.89197,0.98767
1997.96343,0.98755
1996.03490,0.98755
1994.10636,0.98760
1992.17782,0.98780
1990.24929,0.98826
1988.32075,0.98864
1986.39221,0.98859
1984.46368,0.98822
1982.53514,0.98805
1980.60661,0.98840
1978.67807,0.98896
1976.74953,0.98935
1974.82100,0.98946
1972.89246,0.98911
1970.96393,0.98860
1969.03539,0.98846
1967.10685,0.98841
1965.17832,0.98810
1963.24978,0.98787
1961.32125,0.98807
1959.39271,0.98852
1957.46417,0.98887
1955.53564,0.98893
1953.60710,0.98875
1951.67856,0.98853
1949.75003,0.98838
1947.82149,0.98838
1945.89296,0.98854
1943.96442,0.98873
1942.03588,0.98863
1940.10735,0.98824
1938.17881,0.98790
1936.25028,0.98775
1934.32174,0.98776
1932.39320,0.98789
1930.46467,0.98808
1928.53613,0.98830
1926.60759,0.98852
1924.67906,0.98854
1922.75052,0.98840
1920.82199,0.98846
1918.89345,0.98861
1916.96491,0.98860
1915.03638,0.98862
1913.10784,0.98872
1911.17931,0.98875
1909.25077,0.98855
1907.32223,0.98826
1905.39370,0.98817
1903.46516,0.98818
1901.53663,0.98814
1899.60809,0.98812
1897.67955,0.98816
1895.75102,0.98806
1893.82248,0.98784
1891.89394,0.98772
1889.96541,0.98773
1888.03687,0.98780
1886.10834,0.98781
1884.17980,0.98776
1882.25126,0.98766
1880.32273,0.98757
1878.39419,0.98750
1876.46566,0.98745
1874.53712,0.98744
1872.60858,0.98735
1870.68005,0.98705
1868.75151,0.98657
1866.82297,0.98634
1864.89444,0.98633
1862.96590,0.98625
1861.03737,0.98609
1859.10883,0.98599
1857.18029,0.98600
1855.25176,0.98592
1853.32322,0.98566
1851.39469,0.98543
1849.46615,0.98531
1847.53761,0.98518
1845.60908,0.98513
1843.68054,0.98549
1841.75200,0.98598
1839.82347,0.98634
1837.89493,0.98661
1835.96640,0.98679
1834.03786,0.98692
1832.10932,0.98694
1830.18079,0.98678
1828.25225,0.98655
1826.32372,0.98634
1824.39518,0.98615
1822.46664,0.98600
1820.53811,0.98590
1818.60957,0.98582
1816.68104,0.98578
1814.75250,0.98570
1812.82396,0.98555
1810.89543,0.98542
1808.96689,0.98539
1807.03835,0.98534
1805.10982,0.98522
1803.18128,0.98502
1801.25275,0.98465
1799.32421,0.98424
1797.39567,0.98403
1795.46714,0.98395
1793.53860,0.98357
1791.61007,0.98264
1789.68153,0.98193
1787.75299,0.98155
1785.82446,0.98137
1783.89592,0.98171
1781.96738,0.98266
1780.03885,0.98385
1778.11031,0.98465
1776.18178,0.98495
1774.25324,0.98501
1772.32470,0.98499
1770.39617,0.98517
1768.46763,0.98531
1766.53910,0.98518
1764.61056,0.98487
1762.68202,0.98446
1760.75349,0.98407
1758.82495,0.98389
1756.89642,0.98388
1754.96788,0.98389
1753.03934,0.98381
1751.11081,0.98354
1749.18227,0.98308
1747.25373,0.98262
1745.32520,0.98225
1743.39666,0.98203
1741.46813,0.98207
1739.53959,0.98253
1737.61105,0.98307
1735.68252,0.98330
1733.75398,0.98334
1731.82545,0.98370
1729.89691,0.98419
1727.96837,0.98450
1726.03984,0.98467
1724.11130,0.98482
1722.18276,0.98497
1720.25423,0.98501
1718.32569,0.98483
1716.39716,0.98444
1714.46862,0.98454
1712.54008,0.98480
1710.61155,0.98487
1708.68301,0.98479
1706.75448,0.98463
1704.82594,0.98445
1702.89740,0.98434
1700.96887,0.98429
1699.04033,0.98428
1697.11180,0.98450
1695.18326,0.98492
1693.25472,0.98512
1691.32619,0.98509
1689.39765,0.98492
1687.46911,0.98474
1685.54058,0.98458
1683.61204,0.98427
1681.68351,0.98418
1679.75497,0.98424
1677.82643,0.98419
1675.89790,0.98406
1673.96936,0.98398
1672.04083,0.98396
1670.11229,0.98388
1668.18375,0.98401
1666.25522,0.98424
1664.32668,0.98439
1662.39814,0.98452
1660.46961,0.98465
1658.54107,0.98473
1656.61254,0.98471
1654.68400,0.98466
1652.75546,0.98458
1650.82693,0.98435
1648.89839,0.98405
1646.96986,0.98342
1645.04132,0.98279
1643.11278,0.98237
1641.18425,0.98192
1639.25571,0.98137
1637.32718,0.98025
1635.39864,0.97781
1633.47010,0.97584
1631.54157,0.97418
1629.61303,0.97157
1627.68449,0.96795
1625.75596,0.96518
1623.82742,0.96464
1621.89889,0.96577
1619.97035,0.96673
1618.04181,0.96650
1616.11328,0.96242
1614.18474,0.95371
1612.25621,0.94043
1610.32767,0.92160
1608.39913,0.90682
1606.47060,0.90939
1604.54206,0.92421
1602.61352,0.94029
1600.68499,0.95117
1598.75645,0.95631
1596.82792,0.95810
1594.89938,0.95713
1592.97084,0.95362
1591.04231,0.94851
1589.11377,0.94220
1587.18524,0.93427
1585.25670,0.92330
1583.32816,0.90710
1581.39963,0.88581
1579.47109,0.86564
1577.54256,0.85895
1575.61402,0.88411
1573.68548,0.91017
1571.75695,0.92299
1569.82841,0.93650
1567.89987,0.94854
1565.97134,0.95446
1564.04280,0.95857
1562.11427,0.96154
1560.18573,0.96400
1558.25719,0.97005
1556.32866,0.97376
1554.40012,0.97487
1552.47159,0.97570
1550.54305,0.97638
1548.61451,0.97697
1546.68598,0.97723
1544.75744,0.97732
1542.82890,0.97725
1540.90037,0.97724
1538.97183,0.97732
1537.04330,0.97729
1535.11476,0.97724
1533.18622,0.97709
1531.25769,0.97679
1529.32915,0.97641
1527.40062,0.97601
1525.47208,0.97556
1523.54354,0.97514
1521.61501,0.97460
1519.68647,0.97384
1517.75793,0.97219
1515.82940,0.96880
1513.90086,0.96467
1511.97233,0.95956
1510.04379,0.95308
1508.11525,0.94282
1506.18672,0.93071
1504.25818,0.93126
1502.32965,0.93518
1500.40111,0.94070
1498.47257,0.94821
1496.54404,0.95622
1494.61550,0.95999
1492.68697,0.96016
1490.75843,0.95552
1488.82989,0.93568
1486.90136,0.90754
1484.97282,0.88797
1483.04428,0.87952
1481.11575,0.88410
1479.18721,0.89666
1477.25868,0.90937
1475.33014,0.92028
1473.40160,0.92853
1471.47307,0.93283
1469.54453,0.93522
1467.61600,0.93761
1465.68746,0.94050
1463.75892,0.94298
1461.83039,0.94448
1459.90185,0.94622
1457.97331,0.95001
1456.04478,0.95376
1454.11624,0.95307
1452.18771,0.95152
1450.25917,0.94971
1448.33063,0.94570
1446.40210,0.93814
1444.47356,0.93116
1442.54503,0.92862
1440.61649,0.93064
1438.68795,0.93299
1436.75942,0.92801
1434.83088,0.91351
1432.90235,0.89903
1430.97381,0.88791
1429.04527,0.88724
1427.11674,0.89677
1425.18820,0.90841
1423.25966,0.91733
1421.33113,0.91981
1419.40259,0.91659
1417.47406,0.91317
1415.54552,0.91476
1413.61698,0.91747
1411.68845,0.91698
1409.75991,0.91041
1407.83138,0.89796
1405.90284,0.87731
1403.97430,0.84895
1402.04577,0.82461
1400.11723,0.80405
1398.18869,0.78444
1396.26016,0.77477
1394.33162,0.77979
1392.40309,0.79240
1390.47455,0.80723
1388.54601,0.82730
1386.61748,0.85311
1384.68894,0.87281
1382.76041,0.88451
1380.83187,0.89298
1378.90333,0.89895
1376.97480,0.90166
1375.04626,0.89714
1373.11773,0.87882
1371.18919,0.85044
1369.26065,0.81885
1367.33212,0.79906
1365.40358,0.80436
1363.47504,0.83404
1361.54651,0.87456
1359.61797,0.89937
1357.68944,0.91112
1355.76090,0.91840
1353.83236,0.92277
1351.90383,0.92456
1349.97529,0.92412
1348.04676,0.92023
1346.11822,0.91028
1344.18968,0.89229
1342.26115,0.86396
1340.33261,0.81577
1338.40407,0.75500
1336.47554,0.72365
1334.54700,0.72604
1332.61847,0.74495
1330.68993,0.76545
1328.76139,0.77990
1326.83286,0.78990
1324.90432,0.79940
1322.97579,0.81190
1321.04725,0.82987
1319.11871,0.85301
1317.19018,0.87501
1315.26164,0.89020
1313.33311,0.90047
1311.40457,0.90831
1309.47603,0.91353
1307.54750,0.91474
1305.61896,0.91076
1303.69042,0.90117
1301.76189,0.88456
1299.83335,0.85913
1297.90482,0.82635
1295.97628,0.79265
1294.04774,0.76289
1292.11921,0.73485
1290.19067,0.70787
1288.26214,0.68968
1286.33360,0.68733
1284.40506,0.69726
1282.47653,0.71117
1280.54799,0.72463
1278.61945,0.73917
1276.69092,0.75857
1274.76238,0.78281
1272.83385,0.80708
1270.90531,0.82515
1268.97677,0.83372
1267.04824,0.83445
1265.11970,0.82990
1263.19117,0.81984
1261.26263,0.80199
1259.33409,0.77753
1257.40556,0.75532
1255.47702,0.74527
1253.54849,0.75091
1251.61995,0.76832
1249.69141,0.79026
1247.76288,0.81210
1245.83434,0.83274
1243.90580,0.85193
1241.97727,0.86869
1240.04873,0.88244
1238.12020,0.89363
1236.19166,0.90276
1234.26312,0.91031
1232.33459,0.91660
1230.40605,0.92150
1228.47752,0.92473
1226.54898,0.92602
1224.62044,0.92516
1222.69191,0.92053
1220.76337,0.90763
1218.83483,0.88421
1216.90630,0.85875
1214.97776,0.84557
1213.04923,0.85241
1211.12069,0.87500
1209.19215,0.89966
1207.26362,0.91600
1205.33508,0.92359
1203.40655,0.92589
1201.47801,0.92523
1199.54947,0.92252
1197.62094,0.91790
1195.69240,0.91103
1193.76387,0.90123
1191.83533,0.88753
1189.90679,0.86907
1187.97826,0.84567
1186.04972,0.81877
1184.12118,0.79158
1182.19265,0.76648
1180.26411,0.74291
1178.33558,0.71939
1176.40704,0.69781
1174.47850,0.68153
1172.54997,0.67089
1170.62143,0.66527
1168.69290,0.66478
1166.76436,0.66629
1164.83582,0.66313
1162.90729,0.65061
1160.97875,0.63321
1159.05021,0.62495
1157.12168,0.63574
1155.19314,0.65992
1153.26461,0.68477
1151.33607,0.70309
1149.40753,0.71295
1147.47900,0.71375
1145.55046,0.70641
1143.62193,0.69428
1141.69339,0.68114
1139.76485,0.66817
1137.83632,0.65368
1135.90778,0.63579
1133.97924,0.61544
1132.05071,0.59591
1130.12217,0.58071
1128.19364,0.57303
1126.26510,0.57497
1124.33656,0.58618
1122.40803,0.60428
1120.47949,0.62643
1118.55096,0.64981
1116.62242,0.67030
1114.69388,0.68231
1112.76535,0.68572
1110.83681,0.69009
1108.90828,0.70303
1106.97974,0.72150
1105.05120,0.73970
1103.12267,0.75620
1101.19413,0.77195
1099.26559,0.78669
1097.33706,0.79849
1095.40852,0.80534
1093.47999,0.80706
1091.55145,0.80754
1089.62291,0.81281
1087.69438,0.82429
1085.76584,0.83792
1083.83731,0.85010
1081.90877,0.86017
1079.98023,0.86852
1078.05170,0.87541
1076.12316,0.88113
1074.19462,0.88607
1072.26609,0.89067
1070.33755,0.89503
1068.40902,0.89906
1066.48048,0.90272
1064.55194,0.90575
1062.62341,0.90716
1060.69487,0.90519
1058.76634,0.89689
1056.83780,0.87803
1054.90926,0.84650
1052.98073,0.80910
1051.05219,0.78311
1049.12366,0.78305
1047.19512,0.80590
1045.26658,0.83627
1043.33805,0.86258
1041.40951,0.88194
1039.48097,0.89554
1037.55244,0.90524
1035.62390,0.91253
1033.69537,0.91830
1031.76683,0.92274
1029.83829,0.92532
1027.90976,0.92464
1025.98122,0.91693
1024.05269,0.89325
1022.12415,0.84598
1020.19561,0.79166
1018.26708,0.76826
1016.33854,0.78851
1014.41000,0.82675
1012.48147,0.85893
1010.55293,0.88102
1008.62440,0.89568
1006.69586,0.90493
1004.76732,0.91029
1002.83879,0.91342
1000.91025,0.91628
998.98172,0.91907
997.05318,0.91933
995.12464,0.91612
993.19611,0.91260
991.26757,0.91033
989.33904,0.90583
987.41050,0.89533
985.48196,0.87780
983.55343,0.85451
981.62489,0.82734
979.69635,0.79557
977.76782,0.75852
975.83928,0.72245
973.91075,0.69802
971.98221,0.68896
970.05367,0.68762
968.12514,0.68330
966.19660,0.67227
964.26807,0.66096
962.33953,0.66020
960.41099,0.67445
958.48246,0.69902
956.55392,0.72696
954.62538,0.75401
952.69685,0.77843
950.76831,0.79955
948.83978,0.81734
946.91124,0.83227
944.98270,0.84496
943.05417,0.85597
941.12563,0.86568
939.19710,0.87430
937.26856,0.88202
935.34002,0.88888
933.41149,0.89473
931.48295,0.89950
929.55442,0.90332
927.62588,0.90638
925.69734,0.90886
923.76881,0.91070
921.84027,0.91166
919.91173,0.91152
917.98320,0.91021
916.05466,0.90754
914.12613,0.90336
912.19759,0.89833
910.26905,0.89420
908.34052,0.89340
906.41198,0.89700
904.48345,0.90193
902.55491,0.90272
900.62637,0.89674
898.69784,0.88353
896.76930,0.85923
894.84076,0.81944
892.91223,0.77710
890.98369,0.76273
889.05516,0.78392
887.12662,0.81136
885.19808,0.82023
883.26955,0.81206
881.34101,0.79908
879.41248,0.78825
877.48394,0.77687
875.55540,0.76115
873.62687,0.74878
871.69833,0.75539
869.76980,0.78389
867.84126,0.81921
865.91272,0.84682
863.98419,0.86314
862.05565,0.86956
860.12711,0.86694
858.19858,0.85599
856.27004,0.83944
854.34151,0.82321
852.41297,0.81453
850.48443,0.81708
848.55590,0.82893
846.62736,0.84508
844.69883,0.86115
842.77029,0.87485
840.84175,0.88553
838.91322,0.89367
836.98468,0.89997
835.05614,0.90426
833.12761,0.90417
831.19907,0.89600
829.27054,0.88068
827.34200,0.86903
825.41346,0.87205
823.48493,0.88689
821.55639,0.90260
819.62786,0.91351
817.69932,0.92019
815.77078,0.92456
813.84225,0.92767
811.91371,0.92990
809.98517,0.93162
808.05664,0.93321
806.12810,0.93453
804.19957,0.93528
802.27103,0.93499
800.34249,0.93213
798.41396,0.92293
796.48542,0.90259
794.55689,0.87202
792.62835,0.84142
790.69981,0.81909
788.77128,0.80078
786.84274,0.78533
784.91421,0.78688
782.98567,0.81079
781.05713,0.84046
779.12860,0.86033
777.20006,0.86821
775.27152,0.86593
773.34299,0.85357
771.41445,0.83149
769.48592,0.80582
767.55738,0.78873
765.62884,0.78816
763.70031,0.80254
761.77177,0.82521
759.84324,0.84896
757.91470,0.86939
755.98616,0.88582
754.05763,0.89913
752.12909,0.91000
750.20055,0.91875
748.27202,0.92559
746.34348,0.93049
744.41495,0.93268
742.48641,0.92878
740.55787,0.91159
738.62934,0.88181
736.70080,0.86107
734.77227,0.86843
732.84373,0.89339
730.91519,0.91544
728.98666,0.92845
727.05812,0.93566
725.12959,0.93993
723.20105,0.94238
721.27251,0.94260
719.34398,0.93777
717.41544,0.92064
715.48690,0.88577
713.55837,0.83971
711.62983,0.79558
709.70130,0.77133
707.77276,0.78569
705.84422,0.82802
703.91569,0.86609
701.98715,0.88861
700.05862,0.90274
698.13008,0.91299
696.20154,0.92064
694.27301,0.92682
692.34447,0.93195
690.41593,0.93565
688.48740,0.93752
686.55886,0.93611
684.63033,0.93135
682.70179,0.92744
680.77325,0.92486
678.84472,0.91149
676.91618,0.87970
674.98765,0.85038
673.05911,0.84759
671.13057,0.86165
669.20204,0.86232
667.27350,0.83006
665.34497,0.80488
663.41643,0.80419
661.48789,0.82570
659.55936,0.85829
657.63082,0.88538
655.70228,0.90207
653.77375,0.91142
651.84521,0.91657
649.91668,0.91926
647.98814,0.92028
646.05960,0.91949
644.13107,0.91715
642.20253,0.91465
640.27400,0.91414
638.34546,0.91667
636.41692,0.92101
634.48839,0.92508
632.55985,0.92813
630.63131,0.93060
628.70278,0.93267
626.77424,0.93461
624.84571,0.93667
622.91717,0.93860
620.98863,0.94007
619.06010,0.94094
617.13156,0.94135
615.20303,0.94136
613.27449,0.94087
611.34595,0.93983
609.41742,0.93850
607.48888,0.93687
605.56035,0.93466
603.63181,0.93169
601.70327,0.92788
599.77474,0.92362
597.84620,0.92012
595.91766,0.91829
593.98913,0.91781
592.06059,0.91782
590.13206,0.91746
588.20352,0.91620
586.27498,0.91422
584.34645,0.91181
582.41791,0.90906
580.48938,0.90556
578.56084,0.90093
576.63230,0.89440
574.70377,0.88510
572.77523,0.87438
570.84669,0.86517
568.91816,0.86107
566.98962,0.86388
565.06109,0.87063
563.13255,0.87734
561.20401,0.88199
559.27548,0.88436
557.34694,0.88512
555.41841,0.88505
553.48987,0.88468
551.56133,0.88433
549.63280,0.88383
547.70426,0.88235
545.77573,0.87959
543.84719,0.87619
541.91865,0.87253
539.99012,0.86745
538.06158,0.85813
536.13304,0.84021
534.20451,0.81078
532.27597,0.77433
530.34744,0.74377
528.41890,0.73073
526.49036,0.73457
524.56183,0.74256
522.63329,0.74253
520.70476,0.73196
518.77622,0.71048
516.84768,0.68753
514.91915,0.68237
512.99061,0.69958
511.06207,0.73216
509.13354,0.76894
507.20500,0.80139
505.27647,0.82580
503.34793,0.84321
501.41939,0.85664
499.49086,0.86601
497.56232,0.87191
495.63379,0.87484
493.70525,0.87311
491.77671,0.86404
489.84818,0.84861
487.91964,0.83241
485.99110,0.82059
484.06257,0.81750
482.13403,0.82339
480.20550,0.83461
478.27696,0.84894
476.34842,0.86402
474.41989,0.87790
472.49135,0.89040
470.56282,0.89821
468.63428,0.89997
466.70574,0.89639
464.77721,0.88434
462.84867,0.86209
460.92014,0.83866
458.99160,0.83219
457.06306,0.85185
455.13453,0.87587
453.20599,0.89185
451.27745,0.90295
449.34892,0.90829
447.42038,0.90784
445.49185,0.89993
443.56331,0.88412
441.63477,0.86934
439.70624,0.86784
437.77770,0.87873
435.84917,0.89578
433.92063,0.90957
431.99209,0.91543
430.06356,0.91673
428.13502,0.91561
426.20648,0.90927
424.27795,0.89235
422.34941,0.87103
420.42088,0.86069
418.49234,0.87249
416.56380,0.88700
414.63527,0.89454
412.70673,0.90192
410.77820,0.90920
408.84966,0.91576
406.92112,0.92142
404.99259,0.92546
403.06405,0.92817
401.13552,0.93206
399.20698,0.94059
