3997.85540,0.97471
3995.92686,0.97483
3993.99833,0.97492
3992.06979,0.97501
3990.14125,0.97510
3988.21272,0.97511
3986.28418,0.97504
3984.35565,0.97496
3982.42711,0.97491
3980.49857,0.97492
3978.57004,0.97499
3976.64150,0.97506
3974.71297,0.97503
3972.78443,0.97486
3970.85589,0.97471
3968.92736,0.97469
3966.99882,0.97471
3965.07029,0.97468
3963.14175,0.97464
3961.21321,0.97461
3959.28468,0.97453
3957.35614,0.97446
3955.42760,0.97448
3953.49907,0.97448
3951.57053,0.97439
3949.64200,0.97438
3947.71346,0.97445
3945.78492,0.97440
3943.85639,0.97428
3941.92785,0.97433
3939.99932,0.97453
3938.07078,0.97470
3936.14224,0.97475
3934.21371,0.97466
3932.28517,0.97456
3930.35663,0.97467
3928.42810,0.97480
3926.49956,0.97481
3924.57103,0.97483
3922.64249,0.97480
3920.71395,0.97472
3918.78542,0.97478
3916.85688,0.97500
3914.92835,0.97510
3912.99981,0.97505
3911.07127,0.97500
3909.14274,0.97494
3907.21420,0.97478
3905.28566,0.97457
3903.35713,0.97464
3901.42859,0.97496
3899.50006,0.97520
3897.57152,0.97525
3895.64298,0.97513
3893.71445,0.97504
3891.78591,0.97509
3889.85738,0.97514
3887.92884,0.97518
3886.00030,0.97535
3884.07177,0.97540
3882.14323,0.97519
3880.21470,0.97514
3878.28616,0.97520
3876.35762,0.97506
3874.42909,0.97486
3872.50055,0.97478
3870.57201,0.97488
3868.64348,0.97507
3866.71494,0.97518
3864.78641,0.97528
3862.85787,0.97527
3860.92933,0.97515
3859.00080,0.97513
3857.07226,0.97518
3855.14373,0.97530
3853.21519,0.97590
3851.28665,0.97620
3849.35812,0.97598
3847.42958,0.97579
3845.50104,0.97578
3843.57251,0.97599
3841.64397,0.97618
3839.71544,0.97603
3837.78690,0.97586
3835.85836,0.97595
3833.92983,0.97599
3832.00129,0.97599
3830.07276,0.97604
3828.14422,0.97615
3826.21568,0.97635
3824.28715,0.97640
3822.35861,0.97631
3820.43008,0.97650
3818.50154,0.97650
3816.57300,0.97628
3814.64447,0.97630
3812.71593,0.97628
3810.78739,0.97616
3808.85886,0.97621
3806.93032,0.97656
3805.00179,0.97683
3803.07325,0.97691
3801.14471,0.97702
3799.21618,0.97689
3797.28764,0.97681
3795.35911,0.97695
3793.43057,0.97697
3791.50203,0.97687
3789.57350,0.97683
3787.64496,0.97684
3785.71642,0.97692
3783.78789,0.97703
3781.85935,0.97700
3779.93082,0.97696
3778.00228,0.97705
3776.07374,0.97707
3774.14521,0.97697
3772.21667,0.97689
3770.28814,0.97692
3768.35960,0.97693
3766.43106,0.97687
3764.50253,0.97695
3762.57399,0.97711
3760.64546,0.97724
3758.71692,0.97727
3756.78838,0.97709
3754.85985,0.97689
3752.93131,0.97684
3751.00277,0.97709
3749.07424,0.97741
3747.14570,0.97743
3745.21717,0.97742
3743.28863,0.97750
3741.36009,0.97748
3739.43156,0.97723
3737.50302,0.97688
3735.57449,0.97701
3733.64595,0.97772
3731.71741,0.97789
3729.78888,0.97771
3727.86034,0.97758
3725.93180,0.97763
3724.00327,0.97776
3722.07473,0.97775
3720.14620,0.97764
3718.21766,0.97759
3716.28912,0.97762
3714.36059,0.97762
3712.43205,0.97760
3710.50352,0.97767
3708.57498,0.97775
3706.64644,0.97779
3704.71791,0.97773
3702.78937,0.97764
3700.86084,0.97768
3698.93230,0.97775
3697.00376,0.97779
3695.07523,0.97779
3693.14669,0.97769
3691.21815,0.97754
3689.28962,0.97760
3687.36108,0.97785
3685.43255,0.97801
3683.50401,0.97808
3681.57547,0.97810
3679.64694,0.97807
3677.71840,0.97804
3675.78987,0.97802
3673.86133,0.97779
3671.93279,0.97753
3670.00426,0.97760
3668.07572,0.97791
3666.14718,0.97799
3664.21865,0.97790
3662.29011,0.97779
3660.36158,0.97770
3658.43304,0.97764
3656.50450,0.97768
3654.57597,0.97769
3652.64743,0.97756
3650.71890,0.97749
3648.79036,0.97775
3646.86182,0.97762
3644.93329,0.97729
3643.00475,0.97715
3641.07622,0.97718
3639.14768,0.97728
3637.21914,0.97737
3635.29061,0.97744
3633.36207,0.97742
3631.43353,0.97726
3629.50500,0.97739
3627.57646,0.97798
3625.64793,0.97797
3623.71939,0.97767
3621.79085,0.97749
3619.86232,0.97770
3617.93378,0.97807
3616.00525,0.97808
3614.07671,0.97784
3612.14817,0.97755
3610.21964,0.97742
3608.29110,0.97758
3606.36256,0.97780
3604.43403,0.97781
3602.50549,0.97783
3600.57696,0.97794
3598.64842,0.97796
3596.71988,0.97785
3594.79135,0.97780
3592.86281,0.97775
3590.93428,0.97762
3589.00574,0.97763
3587.07720,0.97797
3585.14867,0.97810
3583.22013,0.97807
3581.29160,0.97810
3579.36306,0.97808
3577.43452,0.97805
3575.50599,0.97809
3573.57745,0.97806
3571.64891,0.97791
3569.72038,0.97776
3567.79184,0.97789
3565.86331,0.97826
3563.93477,0.97821
3562.00623,0.97800
3560.07770,0.97793
3558.14916,0.97806
3556.22063,0.97818
3554.29209,0.97815
3552.36355,0.97812
3550.43502,0.97815
3548.50648,0.97816
3546.57794,0.97820
3544.64941,0.97822
3542.72087,0.97810
3540.79234,0.97784
3538.86380,0.97759
3536.93526,0.97758
3535.00673,0.97773
3533.07819,0.97771
3531.14966,0.97754
3529.22112,0.97744
3527.29258,0.97746
3525.36405,0.97740
3523.43551,0.97720
3521.50697,0.97698
3519.57844,0.97680
3517.64990,0.97664
3515.72137,0.97656
3513.79283,0.97651
3511.86429,0.97640
3509.93576,0.97622
3508.00722,0.97609
3506.07869,0.97606
3504.15015,0.97607
3502.22161,0.97595
3500.29308,0.97574
3498.36454,0.97561
3496.43601,0.97562
3494.50747,0.97566
3492.57893,0.97554
3490.65040,0.97543
3488.72186,0.97551
3486.79332,0.97568
3484.86479,0.97578
3482.93625,0.97596
3481.00772,0.97623
3479.07918,0.97633
3477.15064,0.97628
3475.22211,0.97628
3473.29357,0.97641
3471.36504,0.97657
3469.43650,0.97669
3467.50796,0.97677
3465.57943,0.97682
3463.65089,0.97681
3461.72235,0.97678
3459.79382,0.97675
3457.86528,0.97675
3455.93675,0.97682
3454.00821,0.97686
3452.07967,0.97677
3450.15114,0.97664
3448.22260,0.97661
3446.29407,0.97663
3444.36553,0.97649
3442.43699,0.97620
3440.50846,0.97587
3438.57992,0.97562
3436.65139,0.97545
3434.72285,0.97525
3432.79431,0.97501
3430.86578,0.97473
3428.93724,0.97439
3427.00870,0.97398
3425.08017,0.97353
3423.15163,0.97307
3421.22310,0.97259
3419.29456,0.97204
3417.36602,0.97139
3415.43749,0.97060
3413.50895,0.96965
3411.58042,0.96850
3409.65188,0.96717
3407.72334,0.96574
3405.79481,0.96422
3403.86627,0.96242
3401.93773,0.96013
3400.00920,0.95739
3398.08066,0.95411
3396.15213,0.94994
3394.22359,0.94429
3392.29505,0.93624
3390.36652,0.92538
3388.43798,0.91135
3386.50945,0.89363
3384.58091,0.87412
3382.65237,0.85852
3380.72384,0.85273
3378.79530,0.85856
3376.86677,0.87285
3374.93823,0.88991
3373.00969,0.90542
3371.08116,0.91775
3369.15262,0.92711
3367.22408,0.93426
3365.29555,0.93980
3363.36701,0.94414
3361.43848,0.94746
3359.50994,0.94995
3357.58140,0.95195
3355.65287,0.95374
3353.72433,0.95521
3351.79580,0.95610
3349.86726,0.95643
3347.93872,0.95650
3346.01019,0.95655
3344.08165,0.95647
3342.15311,0.95602
3340.22458,0.95513
3338.29604,0.95397
3336.36751,0.95263
3334.43897,0.95090
3332.51043,0.94872
3330.58190,0.94619
3328.65336,0.94325
3326.72483,0.93983
3324.79629,0.93603
3322.86775,0.93196
3320.93922,0.92761
3319.01068,0.92303
3317.08215,0.91840
3315.15361,0.91383
3313.22507,0.90946
3311.29654,0.90558
3309.36800,0.90229
3307.43946,0.89965
3305.51093,0.89776
3303.58239,0.89655
3301.65386,0.89596
3299.72532,0.89599
3297.79678,0.89660
3295.86825,0.89761
3293.93971,0.89889
3292.01118,0.90035
3290.08264,0.90188
3288.15410,0.90345
3286.22557,0.90506
3284.29703,0.90670
3282.36849,0.90826
3280.43996,0.90966
3278.51142,0.91101
3276.58289,0.91232
3274.65435,0.91346
3272.72581,0.91441
3270.79728,0.91521
3268.86874,0.91584
3266.94021,0.91627
3265.01167,0.91659
3263.08313,0.91688
3261.15460,0.91722
3259.22606,0.91757
3257.29753,0.91782
3255.36899,0.91791
3253.44045,0.91786
3251.51192,0.91783
3249.58338,0.91793
3247.65484,0.91797
3245.72631,0.91768
3243.79777,0.91716
3241.86924,0.91659
3239.94070,0.91590
3238.01216,0.91517
3236.08363,0.91436
3234.15509,0.91337
3232.22656,0.91214
3230.29802,0.91071
3228.36948,0.90914
3226.44095,0.90750
3224.51241,0.90580
3222.58387,0.90408
3220.65534,0.90240
3218.72680,0.90064
3216.79827,0.89882
3214.86973,0.89720
3212.94119,0.89577
3211.01266,0.89452
3209.08412,0.89360
3207.15559,0.89302
3205.22705,0.89258
3203.29851,0.89222
3201.36998,0.89202
3199.44144,0.89203
3197.51290,0.89230
3195.58437,0.89281
3193.65583,0.89356
3191.72730,0.89445
3189.79876,0.89547
3187.87022,0.89668
3185.94169,0.89812
3184.01315,0.89973
3182.08462,0.90146
3180.15608,0.90330
3178.22754,0.90528
3176.29901,0.90735
3174.37047,0.90945
3172.44194,0.91160
3170.51340,0.91372
3168.58486,0.91576
3166.65633,0.91769
3164.72779,0.91950
3162.79925,0.92127
3160.87072,0.92309
3158.94218,0.92503
3157.01365,0.92720
3155.08511,0.92952
3153.15657,0.93152
3151.22804,0.93278
3149.29950,0.93341
3147.37097,0.93394
3145.44243,0.93472
3143.51389,0.93577
3141.58536,0.93693
3139.65682,0.93783
3137.72828,0.93830
3135.79975,0.93864
3133.87121,0.93925
3131.94268,0.94018
3130.01414,0.94105
3128.08560,0.94154
3126.15707,0.94177
3124.22853,0.94195
3122.30000,0.94204
3120.37146,0.94193
3118.44292,0.94162
3116.51439,0.94122
3114.58585,0.94114
3112.65732,0.94176
3110.72878,0.94306
3108.80024,0.94473
3106.87171,0.94638
3104.94317,0.94775
3103.01463,0.94888
3101.08610,0.94991
3099.15756,0.95080
3097.22903,0.95147
3095.30049,0.95200
3093.37195,0.95242
3091.44342,0.95279
3089.51488,0.95315
3087.58635,0.95355
3085.65781,0.95417
3083.72927,0.95508
3081.80074,0.95606
3079.87220,0.95690
3077.94366,0.95751
3076.01513,0.95786
3074.08659,0.95799
3072.15806,0.95805
3070.22952,0.95814
3068.30098,0.95832
3066.37245,0.95868
3064.44391,0.95925
3062.51538,0.95991
3060.58684,0.96056
3058.65830,0.96123
3056.72977,0.96192
3054.80123,0.96254
3052.87270,0.96301
3050.94416,0.96333
3049.01562,0.96360
3047.08709,0.96392
3045.15855,0.96426
3043.23001,0.96457
3041.30148,0.96477
3039.37294,0.96480
3037.44441,0.96472
3035.51587,0.96457
3033.58733,0.96428
3031.65880,0.96374
3029.73026,0.96304
3027.80173,0.96219
3025.87319,0.96095
3023.94465,0.95901
3022.01612,0.95604
3020.08758,0.95182
3018.15904,0.94705
3016.23051,0.94367
3014.30197,0.94343
3012.37344,0.94604
3010.44490,0.94954
3008.51636,0.95227
3006.58783,0.95392
3004.65929,0.95489
3002.73076,0.95547
3000.80222,0.95577
2998.87368,0.95588
2996.94515,0.95581
2995.01661,0.95546
2993.08808,0.95471
2991.15954,0.95325
2989.23100,0.95070
2987.30247,0.94660
2985.37393,0.94067
2983.44539,0.93309
2981.51686,0.92531
2979.58832,0.91974
2977.65979,0.91766
2975.73125,0.91777
2973.80271,0.91741
2971.87418,0.91486
2969.94564,0.91011
2968.01711,0.90400
2966.08857,0.89731
2964.16003,0.89057
2962.23150,0.88400
2960.30296,0.87757
2958.37442,0.87107
2956.44589,0.86383
2954.51735,0.85502
2952.58882,0.84515
2950.66028,0.83805
2948.73174,0.83866
2946.80321,0.84717
2944.87467,0.85819
2942.94614,0.86632
2941.01760,0.86978
2939.08906,0.86916
2937.16053,0.86556
2935.23199,0.85997
2933.30346,0.85337
2931.37492,0.84647
2929.44638,0.83967
2927.51785,0.83353
2925.58931,0.82900
2923.66077,0.82688
2921.73224,0.82757
2919.80370,0.83119
2917.87517,0.83743
2915.94663,0.84532
2914.01809,0.85352
2912.08956,0.86084
2910.16102,0.86672
2908.23249,0.87131
2906.30395,0.87542
2904.37541,0.87991
2902.44688,0.88502
2900.51834,0.89023
2898.58980,0.89503
2896.66127,0.89930
2894.73273,0.90312
2892.80420,0.90656
2890.87566,0.90964
2888.94712,0.91231
2887.01859,0.91450
2885.09005,0.91618
2883.16152,0.91718
2881.23298,0.91723
2879.30444,0.91622
2877.37591,0.91425
2875.44737,0.91171
2873.51883,0.90923
2871.59030,0.90744
2869.66176,0.90658
2867.73323,0.90627
2865.80469,0.90558
2863.87615,0.90361
2861.94762,0.90021
2860.01908,0.89579
2858.09055,0.89092
2856.16201,0.88645
2854.23347,0.88324
2852.30494,0.88093
2850.37640,0.87742
2848.44787,0.87199
2846.51933,0.87009
2844.59079,0.87841
2842.66226,0.89492
2840.73372,0.91169
2838.80518,0.92426
2836.87665,0.93292
2834.94811,0.93910
2833.01958,0.94372
2831.09104,0.94729
2829.16250,0.95015
2827.23397,0.95253
2825.30543,0.95448
2823.37690,0.95600
2821.44836,0.95718
2819.51982,0.95814
2817.59129,0.95901
2815.66275,0.95982
2813.73421,0.96055
2811.80568,0.96124
2809.87714,0.96188
2807.94861,0.96240
2806.02007,0.96278
2804.09153,0.96310
2802.16300,0.96342
2800.23446,0.96376
2798.30593,0.96405
2796.37739,0.96418
2794.44885,0.96420
2792.52032,0.96427
2790.59178,0.96441
2788.66325,0.96447
2786.73471,0.96456
2784.80617,0.96482
2782.87764,0.96518
2780.94910,0.96550
2779.02056,0.96580
2777.09203,0.96615
2775.16349,0.96640
2773.23496,0.96638
2771.30642,0.96618
2769.37788,0.96603
2767.44935,0.96588
2765.52081,0.96557
2763.59228,0.96515
2761.66374,0.96476
2759.73520,0.96444
2757.80667,0.96412
2755.87813,0.96384
2753.94959,0.96380
2752.02106,0.96420
2750.09252,0.96483
2748.16399,0.96516
2746.23545,0.96507
2744.30691,0.96492
2742.37838,0.96503
2740.44984,0.96537
2738.52131,0.96571
2736.59277,0.96586
2734.66423,0.96586
2732.73570,0.96596
2730.80716,0.96625
2728.87863,0.96668
2726.95009,0.96711
2725.02155,0.96730
2723.09302,0.96722
2721.16448,0.96704
2719.23594,0.96685
2717.30741,0.96679
2715.37887,0.96691
2713.45034,0.96710
2711.52180,0.96734
2709.59326,0.96755
2707.66473,0.96763
2705.73619,0.96764
2703.80766,0.96767
2701.87912,0.96773
2699.95058,0.96779
2698.02205,0.96777
2696.09351,0.96776
2694.16497,0.96787
2692.23644,0.96803
2690.30790,0.96815
2688.37937,0.96825
2686.45083,0.96840
2684.52229,0.96859
2682.59376,0.96878
2680.66522,0.96891
2678.73669,0.96896
2676.80815,0.96888
2674.87961,0.96876
2672.95108,0.96867
2671.02254,0.96863
2669.09401,0.96866
2667.16547,0.96868
2665.23693,0.96865
2663.30840,0.96862
2661.37986,0.96860
2659.45132,0.96856
2657.52279,0.96847
2655.59425,0.96832
2653.66572,0.96813
2651.73718,0.96794
2649.80864,0.96772
2647.88011,0.96740
2645.95157,0.96695
2644.02304,0.96650
2642.09450,0.96632
2640.16596,0.96645
2638.23743,0.96669
2636.30889,0.96699
2634.38035,0.96742
2632.45182,0.96793
2630.52328,0.96841
2628.59475,0.96883
2626.66621,0.96922
2624.73767,0.96953
2622.80914,0.96979
2620.88060,0.97010
2618.95207,0.97050
2617.02353,0.97084
2615.09499,0.97104
2613.16646,0.97114
2611.23792,0.97118
2609.30939,0.97112
2607.38085,0.97093
2605.45231,0.97071
2603.52378,0.97052
2601.59524,0.97038
2599.66670,0.97032
2597.73817,0.97038
2595.80963,0.97050
2593.88110,0.97053
2591.95256,0.97044
2590.02402,0.97034
2588.09549,0.97021
2586.16695,0.97000
2584.23842,0.96983
2582.30988,0.96976
2580.38134,0.96969
2578.45281,0.96969
2576.52427,0.96983
2574.59573,0.96994
2572.66720,0.96991
2570.73866,0.96996
2568.81013,0.97012
2566.88159,0.97014
2564.95305,0.97002
2563.02452,0.96998
2561.09598,0.96996
2559.16745,0.96983
2557.23891,0.96976
2555.31037,0.96987
2553.38184,0.97003
2551.45330,0.97029
2549.52476,0.97083
2547.59623,0.97159
2545.66769,0.97228
2543.73916,0.97264
2541.81062,0.97270
2539.88208,0.97269
2537.95355,0.97273
2536.02501,0.97270
2534.09648,0.97253
2532.16794,0.97216
2530.23940,0.97170
2528.31087,0.97136
2526.38233,0.97133
2524.45380,0.97168
2522.52526,0.97227
2520.59672,0.97288
2518.66819,0.97330
2516.73965,0.97350
2514.81111,0.97357
2512.88258,0.97357
2510.95404,0.97344
2509.02551,0.97307
2507.09697,0.97246
2505.16843,0.97159
2503.23990,0.97050
2501.31136,0.96963
2499.38283,0.96951
2497.45429,0.97017
2495.52575,0.97122
2493.59722,0.97228
2491.66868,0.97306
2489.74014,0.97352
2487.81161,0.97379
2485.88307,0.97399
2483.95454,0.97413
2482.02600,0.97423
2480.09746,0.97440
2478.16893,0.97470
2476.24039,0.97500
2474.31186,0.97508
2472.38332,0.97496
2470.45478,0.97482
2468.52625,0.97465
2466.59771,0.97454
2464.66918,0.97462
2462.74064,0.97478
2460.81210,0.97487
2458.88357,0.97492
2456.95503,0.97501
2455.02649,0.97519
2453.09796,0.97543
2451.16942,0.97556
2449.24089,0.97549
2447.31235,0.97526
2445.38381,0.97506
2443.45528,0.97492
2441.52674,0.97474
2439.59821,0.97455
2437.66967,0.97440
2435.74113,0.97434
2433.81260,0.97431
2431.88406,0.97412
2429.95552,0.97375
2428.02699,0.97340
2426.09845,0.97323
2424.16992,0.97332
2422.24138,0.97359
2420.31284,0.97397
2418.38431,0.97432
2416.45577,0.97446
2414.52724,0.97437
2412.59870,0.97422
2410.67016,0.97411
2408.74163,0.97398
2406.81309,0.97375
2404.88456,0.97344
2402.95602,0.97314
2401.02748,0.97288
2399.09895,0.97271
2397.17041,0.97258
2395.24187,0.97243
2393.31334,0.97222
2391.38480,0.97199
2389.45627,0.97181
2387.52773,0.97169
2385.59919,0.97154
2383.67066,0.97143
2381.74212,0.97134
2379.81359,0.97120
2377.88505,0.97104
2375.95651,0.97097
2374.02798,0.97094
2372.09944,0.97079
2370.17090,0.97044
2368.24237,0.96983
2366.31383,0.96906
2364.38530,0.96840
2362.45676,0.96804
2360.52822,0.96825
2358.59969,0.96894
2356.67115,0.96938
2354.74262,0.96973
2352.81408,0.97054
2350.88554,0.97144
2348.95701,0.97187
2347.02847,0.97165
2345.09994,0.97088
2343.17140,0.97025
2341.24286,0.97029
2339.31433,0.97047
2337.38579,0.97025
2335.45725,0.96982
2333.52872,0.96934
2331.60018,0.96889
2329.67165,0.96874
2327.74311,0.96880
2325.81457,0.96881
2323.88604,0.96894
2321.95750,0.96933
2320.02897,0.96975
2318.10043,0.97012
2316.17189,0.97049
2314.24336,0.97088
2312.31482,0.97132
2310.38628,0.97179
2308.45775,0.97224
2306.52921,0.97261
2304.60068,0.97280
2302.67214,0.97288
2300.74360,0.97292
2298.81507,0.97296
2296.88653,0.97302
2294.95800,0.97310
2293.02946,0.97310
2291.10092,0.97308
2289.17239,0.97313
2287.24385,0.97315
2285.31532,0.97303
2283.38678,0.97281
2281.45824,0.97266
2279.52971,0.97269
2277.60117,0.97290
2275.67263,0.97325
2273.74410,0.97361
2271.81556,0.97389
2269.88703,0.97410
2267.95849,0.97424
2266.02995,0.97430
2264.10142,0.97435
2262.17288,0.97431
2260.24435,0.97408
2258.31581,0.97386
2256.38727,0.97381
2254.45874,0.97377
2252.53020,0.97363
2250.60166,0.97352
2248.67313,0.97333
2246.74459,0.97305
2244.81606,0.97298
2242.88752,0.97319
2240.95898,0.97366
2239.03045,0.97426
2237.10191,0.97468
2235.17338,0.97490
2233.24484,0.97515
2231.31630,0.97553
2229.38777,0.97598
2227.45923,0.97647
2225.53070,0.97677
2223.60216,0.97675
2221.67362,0.97659
2219.74509,0.97647
2217.81655,0.97654
2215.88801,0.97669
2213.95948,0.97675
2212.03094,0.97691
2210.10241,0.97734
2208.17387,0.97781
2206.24533,0.97813
2204.31680,0.97839
2202.38826,0.97860
2200.45973,0.97859
2198.53119,0.97829
2196.60265,0.97811
2194.67412,0.97826
2192.74558,0.97859
2190.81704,0.97902
2188.88851,0.97947
2186.95997,0.97973
2185.03144,0.97971
2183.10290,0.97985
2181.17436,0.98051
2179.24583,0.98118
2177.31729,0.98137
2175.38876,0.98115
2173.46022,0.98084
2171.53168,0.98049
2169.60315,0.98011
2167.67461,0.97995
2165.74607,0.98003
2163.81754,0.98014
2161.88900,0.98048
2159.96047,0.98139
2158.03193,0.98224
2156.10339,0.98208
2154.17486,0.98103
2152.24632,0.97997
2150.31779,0.97930
2148.38925,0.97879
2146.46071,0.97843
2144.53218,0.97849
2142.60364,0.97891
2140.67511,0.97925
2138.74657,0.97935
2136.81803,0.97947
2134.88950,0.97950
2132.96096,0.97943
2131.03242,0.97944
2129.10389,0.97949
2127.17535,0.97946
2125.24682,0.97934
2123.31828,0.97910
2121.38974,0.97876
2119.46121,0.97843
2117.53267,0.97811
2115.60414,0.97774
2113.67560,0.97736
2111.74706,0.97705
2109.81853,0.97688
2107.88999,0.97684
2105.96145,0.97698
2104.03292,0.97738
2102.10438,0.97798
2100.17585,0.97865
2098.24731,0.97924
2096.31877,0.97963
2094.39024,0.97972
2092.46170,0.97961
2090.53317,0.97947
2088.60463,0.97915
2086.67609,0.97854
2084.74756,0.97799
2082.81902,0.97803
2080.89049,0.97865
2078.96195,0.97939
2077.03341,0.97983
2075.10488,0.97991
2073.17634,0.97970
2071.24780,0.97930
2069.31927,0.97906
2067.39073,0.97924
2065.46220,0.97986
2063.53366,0.98063
2061.60512,0.98111
2059.67659,0.98124
2057.74805,0.98113
2055.81952,0.98086
2053.89098,0.98034
2051.96244,0.97974
2050.03391,0.97956
2048.10537,0.97986
2046.17683,0.98021
2044.24830,0.98029
2042.31976,0.97972
2040.39123,0.97864
2038.46269,0.97814
2036.53415,0.97890
2034.60562,0.98056
2032.67708,0.98222
2030.74855,0.98322
2028.82001,0.98355
2026.89147,0.98357
2024.96294,0.98364
2023.03440,0.98359
2021.10587,0.98343
2019.17733,0.98346
2017.24879,0.98342
2015.32026,0.98326
2013.39172,0.98332
2011.46318,0.98322
2009.53465,0.98268
2007.60611,0.98211
2005.67758,0.98167
2003.74904,0.98111
2001.82050,0.98053
1999.89197,0.98019
1997.96343,0.98006
1996.03490,0.98004
1994.10636,0.98040
1992.17782,0.98141
1990.24929,0.98249
1988.32075,0.98320
1986.39221,0.98374
1984.46368,0.98408
1982.53514,0.98411
1980.60661,0.98410
1978.67807,0.98435
1976.74953,0.98457
1974.82100,0.98437
1972.89246,0.98396
1970.96393,0.98402
1969.03539,0.98458
1967.10685,0.98483
1965.17832,0.98450
1963.24978,0.98406
1961.32125,0.98356
1959.39271,0.98308
1957.46417,0.98292
1955.53564,0.98289
1953.60710,0.98260
1951.67856,0.98200
1949.75003,0.98066
1947.82149,0.97792
1945.89296,0.97475
1943.96442,0.97383
1942.03588,0.97601
1940.10735,0.97861
1938.17881,0.98019
1936.25028,0.98119
1934.32174,0.98186
1932.39320,0.98228
1930.46467,0.98245
1928.53613,0.98229
1926.60759,0.98188
1924.67906,0.98145
1922.75052,0.98112
1920.82199,0.98117
1918.89345,0.98170
1916.96491,0.98237
1915.03638,0.98278
1913.10784,0.98301
1911.17931,0.98325
1909.25077,0.98336
1907.32223,0.98319
1905.39370,0.98296
1903.46516,0.98289
1901.53663,0.98291
1899.60809,0.98280
1897.67955,0.98261
1895.75102,0.98234
1893.82248,0.98200
1891.89394,0.98176
1889.96541,0.98158
1888.03687,0.98125
1886.10834,0.98087
1884.17980,0.98058
1882.25126,0.98034
1880.32273,0.98016
1878.39419,0.98017
1876.46566,0.98031
1874.53712,0.98037
1872.60858,0.98038
1870.68005,0.98044
1868.75151,0.98037
1866.82297,0.97988
1864.89444,0.97916
1862.96590,0.97837
1861.03737,0.97735
1859.10883,0.97587
1857.18029,0.97433
1855.25176,0.97368
1853.32322,0.97424
1851.39469,0.97530
1849.46615,0.97627
1847.53761,0.97711
1845.60908,0.97779
1843.68054,0.97840
1841.75200,0.97877
1839.82347,0.97895
1837.89493,0.97911
1835.96640,0.97929
1834.03786,0.97943
1832.10932,0.97954
1830.18079,0.97971
1828.25225,0.97983
1826.32372,0.97984
1824.39518,0.97982
1822.46664,0.98001
1820.53811,0.98040
1818.60957,0.98076
1816.68104,0.98099
1814.75250,0.98108
1812.82396,0.98111
1810.89543,0.98102
1808.96689,0.98084
1807.03835,0.98064
1805.10982,0.98041
1803.18128,0.98027
1801.25275,0.98021
1799.32421,0.98016
1797.39567,0.98010
1795.46714,0.98011
1793.53860,0.98020
1791.61007,0.98004
1789.68153,0.97961
1787.75299,0.97918
1785.82446,0.97869
1783.89592,0.97805
1781.96738,0.97731
1780.03885,0.97645
1778.11031,0.97560
1776.18178,0.97487
1774.25324,0.97379
1772.32470,0.97092
1770.39617,0.96664
1768.46763,0.96304
1766.53910,0.95975
1764.61056,0.95623
1762.68202,0.94978
1760.75349,0.94023
1758.82495,0.93513
1756.89642,0.93760
1754.96788,0.94419
1753.03934,0.95063
1751.11081,0.95731
1749.18227,0.96367
1747.25373,0.96661
1745.32520,0.96759
1743.39666,0.96834
1741.46813,0.96922
1739.53959,0.97010
1737.61105,0.97075
1735.68252,0.97151
1733.75398,0.97264
1731.82545,0.97291
1729.89691,0.97272
1727.96837,0.97274
1726.03984,0.97293
1724.11130,0.97328
1722.18276,0.97368
1720.25423,0.97408
1718.32569,0.97475
1716.39716,0.97546
1714.46862,0.97518
1712.54008,0.97484
1710.61155,0.97467
1708.68301,0.97455
1706.75448,0.97443
1704.82594,0.97433
1702.89740,0.97438
1700.96887,0.97468
1699.04033,0.97492
1697.11180,0.97458
1695.18326,0.97398
1693.25472,0.97357
1691.32619,0.97344
1689.39765,0.97337
1687.46911,0.97320
1685.54058,0.97273
1683.61204,0.97091
1681.68351,0.96877
1679.75497,0.96734
1677.82643,0.96620
1675.89790,0.96495
1673.96936,0.96358
1672.04083,0.96264
1670.11229,0.96148
1668.18375,0.95945
1666.25522,0.95775
1664.32668,0.95578
1662.39814,0.95203
1660.46961,0.94763
1658.54107,0.94416
1656.61254,0.94120
1654.68400,0.93729
1652.75546,0.92668
1650.82693,0.91979
1648.89839,0.91760
1646.96986,0.91329
1645.04132,0.90817
1643.11278,0.90487
1641.18425,0.90138
1639.25571,0.89745
1637.32718,0.89156
1635.39864,0.87921
1633.47010,0.87060
1631.54157,0.86714
1629.61303,0.86495
1627.68449,0.86442
1625.75596,0.86668
1623.82742,0.87311
1621.89889,0.88146
1619.97035,0.88541
1618.04181,0.88035
1616.11328,0.84944
1614.18474,0.79992
1612.25621,0.75090
1610.32767,0.71638
1608.39913,0.72724
1606.47060,0.77627
1604.54206,0.82424
1602.61352,0.85928
1600.68499,0.88181
1598.75645,0.89405
1596.82792,0.90023
1594.89938,0.90070
1592.97084,0.89311
1591.04231,0.87873
1589.11377,0.86321
1587.18524,0.85076
1585.25670,0.83649
1583.32816,0.81264
1581.39963,0.78093
1579.47109,0.74990
1577.54256,0.71545
1575.61402,0.68063
1573.68548,0.68353
1571.75695,0.71347
1569.82841,0.77206
1567.89987,0.83316
1565.97134,0.86432
1564.04280,0.88391
1562.11427,0.89682
1560.18573,0.90679
1558.25719,0.92705
1556.32866,0.93690
1554.40012,0.93929
1552.47159,0.94194
1550.54305,0.94519
1548.61451,0.94820
1546.68598,0.94988
1544.75744,0.95100
1542.82890,0.95270
1540.90037,0.95467
1538.97183,0.95380
1537.04330,0.95310
1535.11476,0.95353
1533.18622,0.95548
1531.25769,0.95715
1529.32915,0.95774
1527.40062,0.95805
1525.47208,0.95785
1523.54354,0.95740
1521.61501,0.95648
1519.68647,0.95536
1517.75793,0.95325
1515.82940,0.94881
1513.90086,0.94365
1511.97233,0.93830
1510.04379,0.93300
1508.11525,0.92774
1506.18672,0.92374
1504.25818,0.92357
1502.32965,0.92421
1500.40111,0.92468
1498.47257,0.92360
1496.54404,0.91959
1494.61550,0.91524
1492.68697,0.91091
1490.75843,0.89790
1488.82989,0.85823
1486.90136,0.81371
1484.97282,0.78982
1483.04428,0.78635
1481.11575,0.80283
1479.18721,0.82567
1477.25868,0.84132
1475.33014,0.84998
1473.40160,0.85443
1471.47307,0.85400
1469.54453,0.85024
1467.61600,0.84609
1465.68746,0.84429
1463.75892,0.84477
1461.83039,0.84160
1459.90185,0.83545
1457.97331,0.84109
1456.04478,0.87636
1454.11624,0.89135
1452.18771,0.89249
1450.25917,0.88834
1448.33063,0.87570
1446.40210,0.84914
1444.47356,0.81330
1442.54503,0.77825
1440.61649,0.75766
1438.68795,0.75482
1436.75942,0.75822
1434.83088,0.76014
1432.90235,0.76087
1430.97381,0.75125
1429.04527,0.72988
1427.11674,0.72521
1425.18820,0.75896
1423.25966,0.82014
1421.33113,0.86808
1419.40259,0.89524
1417.47406,0.91167
1415.54552,0.91755
1413.61698,0.92043
1411.68845,0.92356
1409.75991,0.92666
1407.83138,0.92897
1405.90284,0.93068
1403.97430,0.93142
1402.04577,0.93086
1400.11723,0.92890
1398.18869,0.92497
1396.26016,0.91845
1394.33162,0.90839
1392.40309,0.89663
1390.47455,0.88217
1388.54601,0.85559
1386.61748,0.80915
1384.68894,0.75895
1382.76041,0.71121
1380.83187,0.66137
1378.90333,0.61694
1376.97480,0.58623
1375.04626,0.56760
1373.11773,0.55918
1371.18919,0.56085
1369.26065,0.56922
1367.33212,0.58150
1365.40358,0.59649
1363.47504,0.62140
1361.54651,0.66028
1359.61797,0.69600
1357.68944,0.72538
1355.76090,0.75355
1353.83236,0.77925
1351.90383,0.80005
1349.97529,0.81716
1348.04676,0.83198
1346.11822,0.84462
1344.18968,0.85531
1342.26115,0.86433
1340.33261,0.87292
1338.40407,0.88088
1336.47554,0.88533
1334.54700,0.88646
1332.61847,0.88480
1330.68993,0.88047
1328.76139,0.87438
1326.83286,0.86658
1324.90432,0.85561
1322.97579,0.84176
1321.04725,0.82835
1319.11871,0.81603
1317.19018,0.79802
1315.26164,0.77016
1313.33311,0.74604
1311.40457,0.74801
1309.47603,0.77439
1307.54750,0.80415
1305.61896,0.82188
1303.69042,0.82311
1301.76189,0.80762
1299.83335,0.77547
1297.90482,0.72934
1295.97628,0.67681
1294.04774,0.62803
1292.11921,0.58698
1290.19067,0.55076
1288.26214,0.51544
1286.33360,0.47672
1284.40506,0.42918
1282.47653,0.37385
1280.54799,0.32960
1278.61945,0.32364
1276.69092,0.36283
1274.76238,0.42714
1272.83385,0.48870
1270.90531,0.52158
1268.97677,0.50819
1267.04824,0.45881
1265.11970,0.41412
1263.19117,0.41475
1261.26263,0.46699
1259.33409,0.54319
1257.40556,0.61163
1255.47702,0.66292
1253.54849,0.70106
1251.61995,0.72960
1249.69141,0.75285
1247.76288,0.77596
1245.83434,0.79999
1243.90580,0.82165
1241.97727,0.83801
1240.04873,0.84911
1238.12020,0.85659
1236.19166,0.86192
1234.26312,0.86624
1232.33459,0.87037
1230.40605,0.87440
1228.47752,0.87741
1226.54898,0.87795
1224.62044,0.87457
1222.69191,0.86575
1220.76337,0.84828
1218.83483,0.81314
1216.90630,0.74718
1214.97776,0.65560
1213.04923,0.58203
1211.12069,0.57574
1209.19215,0.63209
1207.26362,0.70125
1205.33508,0.74449
1203.40655,0.75102
1201.47801,0.72197
1199.54947,0.66335
1197.62094,0.59292
1195.69240,0.53571
1193.76387,0.50510
1191.83533,0.49935
1189.90679,0.51316
1187.97826,0.54191
1186.04972,0.57936
1184.12118,0.61816
1182.19265,0.65257
1180.26411,0.67886
1178.33558,0.69341
1176.40704,0.69122
1174.47850,0.66798
1172.54997,0.62452
1170.62143,0.56470
1168.69290,0.49430
1166.76436,0.42523
1164.83582,0.36798
1162.90729,0.32570
1160.97875,0.30317
1159.05021,0.30732
1157.12168,0.33523
1155.19314,0.37214
1153.26461,0.40391
1151.33607,0.42970
1149.40753,0.45699
1147.47900,0.48616
1145.55046,0.51117
1143.62193,0.52938
1141.69339,0.54212
1139.76485,0.55147
1137.83632,0.55792
1135.90778,0.55789
1133.97924,0.54484
1132.05071,0.51976
1130.12217,0.49500
1128.19364,0.47512
1126.26510,0.44593
1124.33656,0.39515
1122.40803,0.32761
1120.47949,0.25872
1118.55096,0.20465
1116.62242,0.17392
1114.69388,0.16613
1112.76535,0.17761
1110.83681,0.20411
1108.90828,0.24113
1106.97974,0.28492
1105.05120,0.33174
1103.12267,0.37583
1101.19413,0.40872
1099.26559,0.42568
1097.33706,0.43538
1095.40852,0.45269
1093.47999,0.48060
1091.55145,0.50781
1089.62291,0.51827
1087.69438,0.50356
1085.76584,0.47554
1083.83731,0.46085
1081.90877,0.47634
1079.98023,0.51641
1078.05170,0.56481
1076.12316,0.60979
1074.19462,0.64750
1072.26609,0.67822
1070.33755,0.70319
1068.40902,0.72296
1066.48048,0.73637
1064.55194,0.73993
1062.62341,0.72853
1060.69487,0.69751
1058.76634,0.64378
1056.83780,0.57080
1054.90926,0.49868
1052.98073,0.45844
1051.05219,0.46517
1049.12366,0.50649
1047.19512,0.56030
1045.26658,0.61197
1043.33805,0.65603
1041.40951,0.69203
1039.48097,0.72124
1037.55244,0.74493
1035.62390,0.76374
1033.69537,0.77774
1031.76683,0.78722
1029.83829,0.79317
1027.90976,0.79338
1025.98122,0.77577
1024.05269,0.72007
1022.12415,0.62479
1020.19561,0.53409
1018.26708,0.50028
1016.33854,0.52398
1014.41000,0.57090
1012.48147,0.61910
1010.55293,0.66225
1008.62440,0.69757
1006.69586,0.72484
1004.76732,0.74553
1002.83879,0.76084
1000.91025,0.77021
998.98172,0.77260
997.05318,0.77351
995.12464,0.78185
993.19611,0.79624
991.26757,0.80878
989.33904,0.81702
987.41050,0.82246
985.48196,0.82626
983.55343,0.82913
981.62489,0.83118
979.69635,0.83121
977.76782,0.82902
975.83928,0.82864
973.91075,0.83287
971.98221,0.83770
970.05367,0.83817
968.12514,0.83300
966.19660,0.82175
964.26807,0.80224
962.33953,0.76916
960.41099,0.71660
958.48246,0.64823
956.55392,0.58506
954.62538,0.55167
952.69685,0.55364
950.76831,0.57800
948.83978,0.61046
946.91124,0.64333
944.98270,0.67307
943.05417,0.69812
941.12563,0.71854
939.19710,0.73519
937.26856,0.74898
935.34002,0.76044
933.41149,0.77002
931.48295,0.77801
929.55442,0.78475
927.62588,0.79059
925.69734,0.79562
923.76881,0.79987
921.84027,0.80323
919.91173,0.80574
917.98320,0.80754
916.05466,0.80868
914.12613,0.80894
912.19759,0.80810
910.26905,0.80652
908.34052,0.80486
906.41198,0.80382
904.48345,0.80333
902.55491,0.80269
900.62637,0.80081
898.69784,0.79644
896.76930,0.78866
894.84076,0.77625
892.91223,0.75665
890.98369,0.73005
889.05516,0.70548
887.12662,0.69357
885.19808,0.69081
883.26955,0.66876
881.34101,0.60049
879.41248,0.50435
877.48394,0.42016
875.55540,0.37557
873.62687,0.38159
871.69833,0.41266
869.76980,0.44296
867.84126,0.48530
865.91272,0.54539
863.98419,0.60319
862.05565,0.64473
860.12711,0.67047
858.19858,0.68535
856.27004,0.69322
854.34151,0.69629
852.41297,0.69576
850.48443,0.69267
848.55590,0.68786
846.62736,0.68182
844.69883,0.67488
842.77029,0.66703
840.84175,0.65813
838.91322,0.64766
836.98468,0.63448
835.05614,0.61669
833.12761,0.59295
831.19907,0.56694
829.27054,0.55201
827.34200,0.56163
825.41346,0.58953
823.48493,0.61430
821.55639,0.62426
819.62786,0.62340
817.69932,0.61914
815.77078,0.61538
813.84225,0.61320
811.91371,0.61245
809.98517,0.61272
808.05664,0.61378
806.12810,0.61559
804.19957,0.61800
802.27103,0.62071
800.34249,0.62317
798.41396,0.62338
796.48542,0.61612
794.55689,0.59124
792.62835,0.53715
790.69981,0.45842
788.77128,0.39133
786.84274,0.37760
784.91421,0.41873
782.98567,0.48070
781.05713,0.53565
779.12860,0.57700
777.20006,0.60755
775.27152,0.63042
773.34299,0.64726
771.41445,0.65647
769.48592,0.65345
767.55738,0.63888
765.62884,0.62483
763.70031,0.62263
761.77177,0.63017
759.84324,0.63998
757.91470,0.64892
755.98616,0.65665
754.05763,0.66341
752.12909,0.66981
750.20055,0.67677
748.27202,0.68468
746.34348,0.69376
744.41495,0.70434
742.48641,0.71681
740.55787,0.73173
738.62934,0.74935
736.70080,0.76953
734.77227,0.78925
732.84373,0.79303
730.91519,0.74574
728.98666,0.64000
727.05812,0.54547
725.12959,0.52912
723.20105,0.57197
721.27251,0.62528
719.34398,0.66821
717.41544,0.69469
715.48690,0.69503
713.55837,0.64783
711.62983,0.54765
709.70130,0.43955
707.77276,0.37724
705.84422,0.37236
703.91569,0.40887
701.98715,0.46389
700.05862,0.51748
698.13008,0.56260
696.20154,0.59896
694.27301,0.62780
692.34447,0.65154
690.41593,0.67181
688.48740,0.68977
686.55886,0.70555
684.63033,0.71934
682.70179,0.73145
680.77325,0.74141
678.84472,0.74733
676.91618,0.74392
674.98765,0.72297
673.05911,0.68279
671.13057,0.62946
669.20204,0.55066
667.27350,0.48707
665.34497,0.51159
663.41643,0.57355
661.48789,0.62964
659.55936,0.65476
657.63082,0.65692
655.70228,0.66351
653.77375,0.68633
651.84521,0.71437
649.91668,0.73532
647.98814,0.74734
646.05960,0.75471
644.13107,0.76071
642.20253,0.76284
640.27400,0.76105
638.34546,0.76186
636.41692,0.76871
634.48839,0.77777
632.55985,0.78547
630.63131,0.79141
628.70278,0.79591
626.77424,0.79940
624.84571,0.80201
622.91717,0.80409
620.98863,0.80595
619.06010,0.80768
617.13156,0.80902
615.20303,0.80960
613.27449,0.80947
611.34595,0.80843
609.41742,0.80631
607.48888,0.80241
605.56035,0.79583
603.63181,0.78665
601.70327,0.77871
599.77474,0.77854
597.84620,0.78627
595.91766,0.79489
593.98913,0.79973
592.06059,0.80050
590.13206,0.79733
588.20352,0.78914
586.27498,0.77147
584.34645,0.74114
582.41791,0.71046
580.48938,0.69896
578.56084,0.70645
576.63230,0.71569
574.70377,0.71706
572.77523,0.71175
570.84669,0.70297
568.91816,0.69534
566.98962,0.69663
565.06109,0.70988
563.13255,0.72954
561.20401,0.74821
559.27548,0.76267
557.34694,0.77352
555.41841,0.78205
553.48987,0.78884
551.56133,0.79382
549.63280,0.79610
547.70426,0.79343
545.77573,0.78294
543.84719,0.76426
541.91865,0.74081
539.99012,0.71975
538.06158,0.70953
536.13304,0.71154
534.20451,0.71970
532.27597,0.72780
530.34744,0.73157
528.41890,0.72599
526.49036,0.70565
524.56183,0.67955
522.63329,0.66966
520.70476,0.68160
518.77622,0.70814
516.84768,0.73583
514.91915,0.75324
512.99061,0.76141
511.06207,0.76498
509.13354,0.76620
507.20500,0.76621
505.27647,0.76652
503.34793,0.76873
501.41939,0.77258
499.49086,0.77483
497.56232,0.77372
495.63379,0.76963
493.70525,0.76231
491.77671,0.75150
489.84818,0.73876
487.91964,0.72471
485.99110,0.70769
484.06257,0.68851
482.13403,0.67593
480.20550,0.67776
478.27696,0.69100
476.34842,0.70539
474.41989,0.71450
472.49135,0.71987
470.56282,0.72240
468.63428,0.72093
466.70574,0.71271
464.77721,0.69081
462.84867,0.64684
460.92014,0.59112
458.99160,0.56079
457.06306,0.58593
455.13453,0.63675
453.20599,0.68487
451.27745,0.72748
449.34892,0.75539
447.42038,0.77269
445.49185,0.78557
443.56331,0.79608
441.63477,0.80544
439.70624,0.81224
437.77770,0.81726
435.84917,0.82249
433.92063,0.82744
431.99209,0.83139
430.06356,0.83531
428.13502,0.83847
426.20648,0.83954
424.27795,0.83938
422.34941,0.84114
420.42088,0.84392
418.49234,0.83906
416.56380,0.82945
414.63527,0.82544
412.70673,0.82780
410.77820,0.83483
408.84966,0.84204
406.92112,0.84801
404.99259,0.85412
403.06405,0.85977
401.13552,0.86273
399.20698,0.86236
