3997.85540,0.94128
3995.92686,0.94103
3993.99833,0.94095
3992.06979,0.94099
3990.14125,0.94103
3988.21272,0.94108
3986.28418,0.94117
3984.35565,0.94122
3982.42711,0.94119
3980.49857,0.94118
3978.57004,0.94119
3976.64150,0.94106
3974.71297,0.94080
3972.78443,0.94066
3970.85589,0.94074
3968.92736,0.94087
3966.99882,0.94096
3965.07029,0.94095
3963.14175,0.94084
3961.21321,0.94082
3959.28468,0.94101
3957.35614,0.94121
3955.42760,0.94130
3953.49907,0.94137
3951.57053,0.94132
3949.64200,0.94106
3947.71346,0.94082
3945.78492,0.94079
3943.85639,0.94074
3941.92785,0.94069
3939.99932,0.94096
3938.07078,0.94131
3936.14224,0.94139
3934.21371,0.94110
3932.28517,0.94060
3930.35663,0.94043
3928.42810,0.94072
3926.49956,0.94087
3924.57103,0.94065
3922.64249,0.94066
3920.71395,0.94091
3918.78542,0.94078
3916.85688,0.94055
3914.92835,0.94087
3912.99981,0.94143
3911.07127,0.94175
3909.14274,0.94184
3907.21420,0.94167
3905.28566,0.94078
3903.35713,0.93947
3901.42859,0.93906
3899.50006,0.93940
3897.57152,0.94014
3895.64298,0.94088
3893.71445,0.94109
3891.78591,0.94071
3889.85738,0.94058
3887.92884,0.94064
3886.00030,0.94014
3884.07177,0.93959
3882.14323,0.93965
3880.21470,0.93990
3878.28616,0.94041
3876.35762,0.94083
3874.42909,0.94057
3872.50055,0.93992
3870.57201,0.93946
3868.64348,0.93957
3866.71494,0.93986
3864.78641,0.93955
3862.85787,0.93944
3860.92933,0.94025
3859.00080,0.94084
3857.07226,0.94077
3855.14373,0.93989
3853.21519,0.93802
3851.28665,0.93835
3849.35812,0.94002
3847.42958,0.94113
3845.50104,0.94133
3843.57251,0.94075
3841.64397,0.93990
3839.71544,0.93899
3837.78690,0.93846
3835.85836,0.93910
3833.92983,0.94003
3832.00129,0.94055
3830.07276,0.94072
3828.14422,0.94068
3826.21568,0.94053
3824.28715,0.94046
3822.35861,0.93993
3820.43008,0.93891
3818.50154,0.93915
3816.57300,0.93980
3814.64447,0.94038
3812.71593,0.94122
3810.78739,0.94183
3808.85886,0.94173
3806.93032,0.94087
3805.00179,0.94031
3803.07325,0.94001
3801.14471,0.93931
3799.21618,0.93945
3797.28764,0.94014
3795.35911,0.94077
3793.43057,0.94145
3791.50203,0.94198
3789.57350,0.94216
3787.64496,0.94204
3785.71642,0.94165
3783.78789,0.94131
3781.85935,0.94123
3779.93082,0.94103
3778.00228,0.94105
3776.07374,0.94169
3774.14521,0.94227
3772.21667,0.94227
3770.28814,0.94167
3768.35960,0.94125
3766.43106,0.94132
3764.50253,0.94146
3762.57399,0.94161
3760.64546,0.94139
3758.71692,0.94069
3756.78838,0.94049
3754.85985,0.94070
3752.93131,0.94011
3751.00277,0.93789
3749.07424,0.93666
3747.14570,0.93718
3745.21717,0.93737
3743.28863,0.93732
3741.36009,0.93769
3739.43156,0.93795
3737.50302,0.93734
3735.57449,0.93545
3733.64595,0.93434
3731.71741,0.93496
3729.78888,0.93572
3727.86034,0.93603
3725.93180,0.93600
3724.00327,0.93625
3722.07473,0.93700
3720.14620,0.93811
3718.21766,0.93944
3716.28912,0.94061
3714.36059,0.94106
3712.43205,0.93976
3710.50352,0.93726
3708.57498,0.93707
3706.64644,0.93792
3704.71791,0.93842
3702.78937,0.93860
3700.86084,0.93876
3698.93230,0.93903
3697.00376,0.93930
3695.07523,0.93944
3693.14669,0.93926
3691.21815,0.93850
3689.28962,0.93783
3687.36108,0.93857
3685.43255,0.93957
3683.50401,0.94018
3681.57547,0.94036
3679.64694,0.94010
3677.71840,0.93944
3675.78987,0.93823
3673.86133,0.93787
3671.93279,0.93820
3670.00426,0.93798
3668.07572,0.93854
3666.14718,0.93980
3664.21865,0.94057
3662.29011,0.94073
3660.36158,0.94064
3658.43304,0.94035
3656.50450,0.93972
3654.57597,0.93942
3652.64743,0.93954
3650.71890,0.93854
3648.79036,0.93596
3646.86182,0.93639
3644.93329,0.93793
3643.00475,0.93869
3641.07622,0.93883
3639.14768,0.93858
3637.21914,0.93812
3635.29061,0.93756
3633.36207,0.93702
3631.43353,0.93648
3629.50500,0.93514
3627.57646,0.93391
3625.64793,0.93455
3623.71939,0.93551
3621.79085,0.93602
3619.86232,0.93589
3617.93378,0.93563
3616.00525,0.93591
3614.07671,0.93626
3612.14817,0.93629
3610.21964,0.93590
3608.29110,0.93522
3606.36256,0.93515
3604.43403,0.93559
3602.50549,0.93553
3600.57696,0.93497
3598.64842,0.93468
3596.71988,0.93455
3594.79135,0.93436
3592.86281,0.93474
3590.93428,0.93540
3589.00574,0.93527
3587.07720,0.93432
3585.14867,0.93446
3583.22013,0.93540
3581.29160,0.93599
3579.36306,0.93603
3577.43452,0.93587
3575.50599,0.93593
3573.57745,0.93616
3571.64891,0.93631
3569.72038,0.93607
3567.79184,0.93501
3565.86331,0.93406
3563.93477,0.93449
3562.00623,0.93516
3560.07770,0.93557
3558.14916,0.93588
3556.22063,0.93602
3554.29209,0.93581
3552.36355,0.93549
3550.43502,0.93555
3548.50648,0.93569
3546.57794,0.93536
3544.64941,0.93504
3542.72087,0.93538
3540.79234,0.93593
3538.86380,0.93618
3536.93526,0.93616
3535.00673,0.93620
3533.07819,0.93630
3531.14966,0.93612
3529.22112,0.93562
3527.29258,0.93524
3525.36405,0.93526
3523.43551,0.93548
3521.50697,0.93579
3519.57844,0.93607
3517.64990,0.93619
3515.72137,0.93614
3513.79283,0.93607
3511.86429,0.93601
3509.93576,0.93589
3508.00722,0.93583
3506.07869,0.93581
3504.15015,0.93558
3502.22161,0.93541
3500.29308,0.93566
3498.36454,0.93590
3496.43601,0.93600
3494.50747,0.93625
3492.57893,0.93657
3490.65040,0.93667
3488.72186,0.93651
3486.79332,0.93640
3484.86479,0.93646
3482.93625,0.93650
3481.00772,0.93653
3479.07918,0.93676
3477.15064,0.93706
3475.22211,0.93720
3473.29357,0.93724
3471.36504,0.93738
3469.43650,0.93755
3467.50796,0.93770
3465.57943,0.93788
3463.65089,0.93800
3461.72235,0.93803
3459.79382,0.93821
3457.86528,0.93850
3455.93675,0.93871
3454.00821,0.93881
3452.07967,0.93886
3450.15114,0.93891
3448.22260,0.93891
3446.29407,0.93888
3444.36553,0.93888
3442.43699,0.93887
3440.50846,0.93902
3438.57992,0.93929
3436.65139,0.93945
3434.72285,0.93951
3432.79431,0.93953
3430.86578,0.93953
3428.93724,0.93963
3427.00870,0.93978
3425.08017,0.93980
3423.15163,0.93967
3421.22310,0.93955
3419.29456,0.93963
3417.36602,0.93987
3415.43749,0.94003
3413.50895,0.94012
3411.58042,0.94021
3409.65188,0.94025
3407.72334,0.94022
3405.79481,0.94028
3403.86627,0.94046
3401.93773,0.94061
3400.00920,0.94063
3398.08066,0.94057
3396.15213,0.94051
3394.22359,0.94044
3392.29505,0.94036
3390.36652,0.94040
3388.43798,0.94057
3386.50945,0.94071
3384.58091,0.94073
3382.65237,0.94075
3380.72384,0.94082
3378.79530,0.94088
3376.86677,0.94099
3374.93823,0.94110
3373.00969,0.94117
3371.08116,0.94127
3369.15262,0.94138
3367.22408,0.94134
3365.29555,0.94122
3363.36701,0.94117
3361.43848,0.94120
3359.50994,0.94129
3357.58140,0.94143
3355.65287,0.94155
3353.72433,0.94157
3351.79580,0.94150
3349.86726,0.94144
3347.93872,0.94149
3346.01019,0.94160
3344.08165,0.94168
3342.15311,0.94169
3340.22458,0.94167
3338.29604,0.94166
3336.36751,0.94168
3334.43897,0.94179
3332.51043,0.94201
3330.58190,0.94218
3328.65336,0.94219
3326.72483,0.94215
3324.79629,0.94210
3322.86775,0.94206
3320.93922,0.94209
3319.01068,0.94218
3317.08215,0.94223
3315.15361,0.94223
3313.22507,0.94222
3311.29654,0.94220
3309.36800,0.94217
3307.43946,0.94215
3305.51093,0.94217
3303.58239,0.94227
3301.65386,0.94240
3299.72532,0.94246
3297.79678,0.94245
3295.86825,0.94243
3293.93971,0.94240
3292.01118,0.94234
3290.08264,0.94233
3288.15410,0.94237
3286.22557,0.94238
3284.29703,0.94237
3282.36849,0.94239
3280.43996,0.94242
3278.51142,0.94237
3276.58289,0.94227
3274.65435,0.94225
3272.72581,0.94239
3270.79728,0.94254
3268.86874,0.94262
3266.94021,0.94263
3265.01167,0.94258
3263.08313,0.94248
3261.15460,0.94241
3259.22606,0.94238
3257.29753,0.94231
3255.36899,0.94226
3253.44045,0.94231
3251.51192,0.94240
3249.58338,0.94245
3247.65484,0.94237
3245.72631,0.94219
3243.79777,0.94223
3241.86924,0.94252
3239.94070,0.94272
3238.01216,0.94270
3236.08363,0.94265
3234.15509,0.94264
3232.22656,0.94264
3230.29802,0.94263
3228.36948,0.94264
3226.44095,0.94274
3224.51241,0.94285
3222.58387,0.94288
3220.65534,0.94286
3218.72680,0.94287
3216.79827,0.94291
3214.86973,0.94289
3212.94119,0.94284
3211.01266,0.94283
3209.08412,0.94286
3207.15559,0.94291
3205.22705,0.94296
3203.29851,0.94303
3201.36998,0.94313
3199.44144,0.94321
3197.51290,0.94324
3195.58437,0.94325
3193.65583,0.94325
3191.72730,0.94326
3189.79876,0.94328
3187.87022,0.94326
3185.94169,0.94317
3184.01315,0.94312
3182.08462,0.94316
3180.15608,0.94318
3178.22754,0.94314
3176.29901,0.94310
3174.37047,0.94306
3172.44194,0.94299
3170.51340,0.94295
3168.58486,0.94286
3166.65633,0.94273
3164.72779,0.94265
3162.79925,0.94260
3160.87072,0.94255
3158.94218,0.94262
3157.01365,0.94283
3155.08511,0.94302
3153.15657,0.94302
3151.22804,0.94289
3149.29950,0.94282
3147.37097,0.94281
3145.44243,0.94277
3143.51389,0.94282
3141.58536,0.94296
3139.65682,0.94298
3137.72828,0.94285
3135.79975,0.94270
3133.87121,0.94253
3131.94268,0.94233
3130.01414,0.94213
3128.08560,0.94190
3126.15707,0.94168
3124.22853,0.94155
3122.30000,0.94151
3120.37146,0.94144
3118.44292,0.94122
3116.51439,0.94091
3114.58585,0.94062
3112.65732,0.94037
3110.72878,0.94023
3108.80024,0.94021
3106.87171,0.94016
3104.94317,0.93995
3103.01463,0.93961
3101.08610,0.93928
3099.15756,0.93897
3097.22903,0.93859
3095.30049,0.93807
3093.37195,0.93741
3091.44342,0.93668
3089.51488,0.93611
3087.58635,0.93591
3085.65781,0.93610
3083.72927,0.93644
3081.80074,0.93672
3079.87220,0.93679
3077.94366,0.93665
3076.01513,0.93638
3074.08659,0.93609
3072.15806,0.93579
3070.22952,0.93546
3068.30098,0.93513
3066.37245,0.93492
3064.44391,0.93486
3062.51538,0.93489
3060.58684,0.93502
3058.65830,0.93524
3056.72977,0.93557
3054.80123,0.93603
3052.87270,0.93655
3050.94416,0.93701
3049.01562,0.93740
3047.08709,0.93777
3045.15855,0.93812
3043.23001,0.93844
3041.30148,0.93870
3039.37294,0.93890
3037.44441,0.93906
3035.51587,0.93920
3033.58733,0.93929
3031.65880,0.93932
3029.73026,0.93929
3027.80173,0.93922
3025.87319,0.93912
3023.94465,0.93896
3022.01612,0.93867
3020.08758,0.93823
3018.15904,0.93754
3016.23051,0.93652
3014.30197,0.93540
3012.37344,0.93453
3010.44490,0.93383
3008.51636,0.93300
3006.58783,0.93200
3004.65929,0.93098
3002.73076,0.93005
3000.80222,0.92928
2998.87368,0.92884
2996.94515,0.92878
2995.01661,0.92895
2993.08808,0.92918
2991.15954,0.92924
2989.23100,0.92913
2987.30247,0.92894
2985.37393,0.92840
2983.44539,0.92739
2981.51686,0.92663
2979.58832,0.92680
2977.65979,0.92753
2975.73125,0.92807
2973.80271,0.92791
2971.87418,0.92714
2969.94564,0.92648
2968.01711,0.92625
2966.08857,0.92627
2964.16003,0.92650
2962.23150,0.92695
2960.30296,0.92748
2958.37442,0.92796
2956.44589,0.92832
2954.51735,0.92848
2952.58882,0.92851
2950.66028,0.92849
2948.73174,0.92848
2946.80321,0.92842
2944.87467,0.92816
2942.94614,0.92760
2941.01760,0.92687
2939.08906,0.92622
2937.16053,0.92577
2935.23199,0.92536
2933.30346,0.92483
2931.37492,0.92415
2929.44638,0.92326
2927.51785,0.92197
2925.58931,0.92043
2923.66077,0.91945
2921.73224,0.91979
2919.80370,0.92118
2917.87517,0.92281
2915.94663,0.92419
2914.01809,0.92527
2912.08956,0.92611
2910.16102,0.92673
2908.23249,0.92720
2906.30395,0.92768
2904.37541,0.92818
2902.44688,0.92859
2900.51834,0.92903
2898.58980,0.92966
2896.66127,0.93039
2894.73273,0.93091
2892.80420,0.93126
2890.87566,0.93167
2888.94712,0.93212
2887.01859,0.93255
2885.09005,0.93299
2883.16152,0.93342
2881.23298,0.93385
2879.30444,0.93429
2877.37591,0.93460
2875.44737,0.93472
2873.51883,0.93473
2871.59030,0.93472
2869.66176,0.93468
2867.73323,0.93458
2865.80469,0.93436
2863.87615,0.93397
2861.94762,0.93341
2860.01908,0.93266
2858.09055,0.93183
2856.16201,0.93118
2854.23347,0.93079
2852.30494,0.93074
2850.37640,0.93114
2848.44787,0.93188
2846.51933,0.93258
2844.59079,0.93307
2842.66226,0.93348
2840.73372,0.93391
2838.80518,0.93422
2836.87665,0.93439
2834.94811,0.93463
2833.01958,0.93505
2831.09104,0.93562
2829.16250,0.93628
2827.23397,0.93700
2825.30543,0.93768
2823.37690,0.93822
2821.44836,0.93865
2819.51982,0.93902
2817.59129,0.93929
2815.66275,0.93947
2813.73421,0.93964
2811.80568,0.93984
2809.87714,0.94000
2807.94861,0.94009
2806.02007,0.94020
2804.09153,0.94037
2802.16300,0.94059
2800.23446,0.94081
2798.30593,0.94100
2796.37739,0.94114
2794.44885,0.94125
2792.52032,0.94136
2790.59178,0.94151
2788.66325,0.94164
2786.73471,0.94170
2784.80617,0.94174
2782.87764,0.94175
2780.94910,0.94172
2779.02056,0.94171
2777.09203,0.94176
2775.16349,0.94180
2773.23496,0.94184
2771.30642,0.94189
2769.37788,0.94197
2767.44935,0.94204
2765.52081,0.94211
2763.59228,0.94216
2761.66374,0.94216
2759.73520,0.94218
2757.80667,0.94227
2755.87813,0.94235
2753.94959,0.94240
2752.02106,0.94245
2750.09252,0.94251
2748.16399,0.94252
2746.23545,0.94247
2744.30691,0.94243
2742.37838,0.94245
2740.44984,0.94248
2738.52131,0.94248
2736.59277,0.94244
2734.66423,0.94244
2732.73570,0.94249
2730.80716,0.94260
2728.87863,0.94271
2726.95009,0.94276
2725.02155,0.94275
2723.09302,0.94273
2721.16448,0.94274
2719.23594,0.94277
2717.30741,0.94281
2715.37887,0.94286
2713.45034,0.94291
2711.52180,0.94294
2709.59326,0.94300
2707.66473,0.94307
2705.73619,0.94314
2703.80766,0.94318
2701.87912,0.94320
2699.95058,0.94319
2698.02205,0.94317
2696.09351,0.94316
2694.16497,0.94317
2692.23644,0.94319
2690.30790,0.94319
2688.37937,0.94317
2686.45083,0.94318
2684.52229,0.94320
2682.59376,0.94324
2680.66522,0.94330
2678.73669,0.94333
2676.80815,0.94331
2674.87961,0.94327
2672.95108,0.94322
2671.02254,0.94317
2669.09401,0.94313
2667.16547,0.94306
2665.23693,0.94299
2663.30840,0.94295
2661.37986,0.94293
2659.45132,0.94291
2657.52279,0.94292
2655.59425,0.94293
2653.66572,0.94285
2651.73718,0.94273
2649.80864,0.94272
2647.88011,0.94281
2645.95157,0.94291
2644.02304,0.94295
2642.09450,0.94290
2640.16596,0.94287
2638.23743,0.94291
2636.30889,0.94299
2634.38035,0.94305
2632.45182,0.94303
2630.52328,0.94296
2628.59475,0.94298
2626.66621,0.94312
2624.73767,0.94329
2622.80914,0.94335
2620.88060,0.94337
2618.95207,0.94347
2617.02353,0.94361
2615.09499,0.94374
2613.16646,0.94393
2611.23792,0.94412
2609.30939,0.94421
2607.38085,0.94426
2605.45231,0.94427
2603.52378,0.94418
2601.59524,0.94410
2599.66670,0.94420
2597.73817,0.94439
2595.80963,0.94452
2593.88110,0.94452
2591.95256,0.94443
2590.02402,0.94442
2588.09549,0.94446
2586.16695,0.94440
2584.23842,0.94430
2582.30988,0.94433
2580.38134,0.94441
2578.45281,0.94450
2576.52427,0.94467
2574.59573,0.94481
2572.66720,0.94481
2570.73866,0.94478
2568.81013,0.94484
2566.88159,0.94493
2564.95305,0.94497
2563.02452,0.94508
2561.09598,0.94523
2559.16745,0.94533
2557.23891,0.94543
2555.31037,0.94553
2553.38184,0.94566
2551.45330,0.94576
2549.52476,0.94577
2547.59623,0.94577
2545.66769,0.94581
2543.73916,0.94585
2541.81062,0.94586
2539.88208,0.94576
2537.95355,0.94566
2536.02501,0.94568
2534.09648,0.94573
2532.16794,0.94570
2530.23940,0.94568
2528.31087,0.94571
2526.38233,0.94577
2524.45380,0.94586
2522.52526,0.94580
2520.59672,0.94562
2518.66819,0.94554
2516.73965,0.94560
2514.81111,0.94569
2512.88258,0.94581
2510.95404,0.94599
2509.02551,0.94612
2507.09697,0.94611
2505.16843,0.94606
2503.23990,0.94605
2501.31136,0.94600
2499.38283,0.94592
2497.45429,0.94586
2495.52575,0.94588
2493.59722,0.94600
2491.66868,0.94609
2489.74014,0.94613
2487.81161,0.94622
2485.88307,0.94636
2483.95454,0.94647
2482.02600,0.94648
2480.09746,0.94650
2478.16893,0.94653
2476.24039,0.94653
2474.31186,0.94651
2472.38332,0.94654
2470.45478,0.94663
2468.52625,0.94671
2466.59771,0.94677
2464.66918,0.94674
2462.74064,0.94658
2460.81210,0.94641
2458.88357,0.94626
2456.95503,0.94602
2455.02649,0.94586
2453.09796,0.94584
2451.16942,0.94571
2449.24089,0.94556
2447.31235,0.94570
2445.38381,0.94605
2443.45528,0.94627
2441.52674,0.94624
2439.59821,0.94615
2437.66967,0.94626
2435.74113,0.94657
2433.81260,0.94681
2431.88406,0.94687
2429.95552,0.94694
2428.02699,0.94706
2426.09845,0.94706
2424.16992,0.94694
2422.24138,0.94681
2420.31284,0.94666
2418.38431,0.94651
2416.45577,0.94640
2414.52724,0.94630
2412.59870,0.94615
2410.67016,0.94607
2408.74163,0.94612
2406.81309,0.94623
2404.88456,0.94639
2402.95602,0.94651
2401.02748,0.94654
2399.09895,0.94655
2397.17041,0.94656
2395.24187,0.94657
2393.31334,0.94666
2391.38480,0.94675
2389.45627,0.94653
2387.52773,0.94568
2385.59919,0.94386
2383.67066,0.94090
2381.74212,0.93686
2379.81359,0.93204
2377.88505,0.92655
2375.95651,0.92012
2374.02798,0.91268
2372.09944,0.90441
2370.17090,0.89551
2368.24237,0.88663
2366.31383,0.87874
2364.38530,0.87252
2362.45676,0.86797
2360.52822,0.86539
2358.59969,0.86610
2356.67115,0.87127
2354.74262,0.87997
2352.81408,0.89049
2350.88554,0.89985
2348.95701,0.90418
2347.02847,0.90185
2345.09994,0.89431
2343.17140,0.88776
2341.24286,0.88630
2339.31433,0.88749
2337.38579,0.88902
2335.45725,0.89059
2333.52872,0.89205
2331.60018,0.89327
2329.67165,0.89473
2327.74311,0.89665
2325.81457,0.89914
2323.88604,0.90248
2321.95750,0.90654
2320.02897,0.91089
2318.10043,0.91514
2316.17189,0.91872
2314.24336,0.92119
2312.31482,0.92296
2310.38628,0.92492
2308.45775,0.92749
2306.52921,0.93043
2304.60068,0.93311
2302.67214,0.93498
2300.74360,0.93624
2298.81507,0.93739
2296.88653,0.93854
2294.95800,0.93963
2293.02946,0.94074
2291.10092,0.94191
2289.17239,0.94308
2287.24385,0.94426
2285.31532,0.94541
2283.38678,0.94627
2281.45824,0.94660
2279.52971,0.94656
2277.60117,0.94656
2275.67263,0.94670
2273.74410,0.94677
2271.81556,0.94674
2269.88703,0.94671
2267.95849,0.94680
2266.02995,0.94704
2264.10142,0.94735
2262.17288,0.94765
2260.24435,0.94787
2258.31581,0.94798
2256.38727,0.94800
2254.45874,0.94803
2252.53020,0.94828
2250.60166,0.94865
2248.67313,0.94888
2246.74459,0.94905
2244.81606,0.94928
2242.88752,0.94953
2240.95898,0.94981
2239.03045,0.95009
2237.10191,0.95028
2235.17338,0.95053
2233.24484,0.95089
2231.31630,0.95112
2229.38777,0.95112
2227.45923,0.95101
2225.53070,0.95095
2223.60216,0.95104
2221.67362,0.95116
2219.74509,0.95125
2217.81655,0.95143
2215.88801,0.95172
2213.95948,0.95189
2212.03094,0.95185
2210.10241,0.95191
2208.17387,0.95220
2206.24533,0.95248
2204.31680,0.95254
2202.38826,0.95246
2200.45973,0.95251
2198.53119,0.95271
2196.60265,0.95275
2194.67412,0.95267
2192.74558,0.95273
2190.81704,0.95278
2188.88851,0.95259
2186.95997,0.95255
2185.03144,0.95289
2183.10290,0.95327
2181.17436,0.95358
2179.24583,0.95389
2177.31729,0.95404
2175.38876,0.95396
2173.46022,0.95394
2171.53168,0.95401
2169.60315,0.95400
2167.67461,0.95394
2165.74607,0.95370
2163.81754,0.95323
2161.88900,0.95346
2159.96047,0.95484
2158.03193,0.95605
2156.10339,0.95621
2154.17486,0.95591
2152.24632,0.95547
2150.31779,0.95507
2148.38925,0.95500
2146.46071,0.95504
2144.53218,0.95482
2142.60364,0.95452
2140.67511,0.95437
2138.74657,0.95421
2136.81803,0.95417
2134.88950,0.95438
2132.96096,0.95435
2131.03242,0.95398
2129.10389,0.95365
2127.17535,0.95347
2125.24682,0.95332
2123.31828,0.95307
2121.38974,0.95269
2119.46121,0.95237
2117.53267,0.95216
2115.60414,0.95205
2113.67560,0.95211
2111.74706,0.95236
2109.81853,0.95249
2107.88999,0.95241
2105.96145,0.95241
2104.03292,0.95256
2102.10438,0.95268
2100.17585,0.95269
2098.24731,0.95279
2096.31877,0.95309
2094.39024,0.95316
2092.46170,0.95277
2090.53317,0.95238
2088.60463,0.95236
2086.67609,0.95262
2084.74756,0.95282
2082.81902,0.95277
2080.89049,0.95258
2078.96195,0.95249
2077.03341,0.95251
2075.10488,0.95263
2073.17634,0.95291
2071.24780,0.95325
2069.31927,0.95356
2067.39073,0.95374
2065.46220,0.95364
2063.53366,0.95341
2061.60512,0.95338
2059.67659,0.95345
2057.74805,0.95353
2055.81952,0.95370
2053.89098,0.95369
2051.96244,0.95345
2050.03391,0.95351
2048.10537,0.95399
2046.17683,0.95454
2044.24830,0.95508
2042.31976,0.95545
2040.39123,0.95572
2038.46269,0.95603
2036.53415,0.95609
2034.60562,0.95614
2032.67708,0.95658
2030.74855,0.95697
2028.82001,0.95711
2026.89147,0.95733
2024.96294,0.95769
2023.03440,0.95797
2021.10587,0.95790
2019.17733,0.95732
2017.24879,0.95691
2015.32026,0.95721
2013.39172,0.95761
2011.46318,0.95762
2009.53465,0.95761
2007.60611,0.95793
2005.67758,0.95837
2003.74904,0.95846
2001.82050,0.95808
1999.89197,0.95751
1997.96343,0.95711
1996.03490,0.95684
1994.10636,0.95638
1992.17782,0.95587
1990.24929,0.95554
1988.32075,0.95545
1986.39221,0.95565
1984.46368,0.95580
1982.53514,0.95573
1980.60661,0.95601
1978.67807,0.95673
1976.74953,0.95720
1974.82100,0.95736
1972.89246,0.95753
1970.96393,0.95760
1969.03539,0.95735
1967.10685,0.95698
1965.17832,0.95689
1963.24978,0.95700
1961.32125,0.95707
1959.39271,0.95706
1957.46417,0.95686
1955.53564,0.95643
1953.60710,0.95608
1951.67856,0.95597
1949.75003,0.95599
1947.82149,0.95608
1945.89296,0.95611
1943.96442,0.95575
1942.03588,0.95534
1940.10735,0.95534
1938.17881,0.95543
1936.25028,0.95544
1934.32174,0.95537
1932.39320,0.95516
1930.46467,0.95499
1928.53613,0.95484
1926.60759,0.95448
1924.67906,0.95385
1922.75052,0.95320
1920.82199,0.95294
1918.89345,0.95288
1916.96491,0.95291
1915.03638,0.95310
1913.10784,0.95323
1911.17931,0.95318
1909.25077,0.95313
1907.32223,0.95331
1905.39370,0.95367
1903.46516,0.95401
1901.53663,0.95427
1899.60809,0.95443
1897.67955,0.95443
1895.75102,0.95426
1893.82248,0.95422
1891.89394,0.95439
1889.96541,0.95452
1888.03687,0.95458
1886.10834,0.95465
1884.17980,0.95473
1882.25126,0.95483
1880.32273,0.95499
1878.39419,0.95516
1876.46566,0.95536
1874.53712,0.95548
1872.60858,0.95531
1870.68005,0.95469
1868.75151,0.95386
1866.82297,0.95393
1864.89444,0.95458
1862.96590,0.95495
1861.03737,0.95507
1859.10883,0.95525
1857.18029,0.95547
1855.25176,0.95560
1853.32322,0.95562
1851.39469,0.95558
1849.46615,0.95539
1847.53761,0.95499
1845.60908,0.95450
1843.68054,0.95444
1841.75200,0.95494
1839.82347,0.95535
1837.89493,0.95546
1835.96640,0.95552
1834.03786,0.95560
1832.10932,0.95542
1830.18079,0.95490
1828.25225,0.95456
1826.32372,0.95459
1824.39518,0.95469
1822.46664,0.95490
1820.53811,0.95515
1818.60957,0.95530
1816.68104,0.95532
1814.75250,0.95518
1812.82396,0.95482
1810.89543,0.95440
1808.96689,0.95431
1807.03835,0.95442
1805.10982,0.95433
1803.18128,0.95385
1801.25275,0.95321
1799.32421,0.95292
1797.39567,0.95290
1795.46714,0.95267
1793.53860,0.95213
1791.61007,0.95197
1789.68153,0.95275
1787.75299,0.95351
1785.82446,0.95377
1783.89592,0.95374
1781.96738,0.95367
1780.03885,0.95369
1778.11031,0.95384
1776.18178,0.95387
1774.25324,0.95341
1772.32470,0.95268
1770.39617,0.95270
1768.46763,0.95325
1766.53910,0.95371
1764.61056,0.95380
1762.68202,0.95339
1760.75349,0.95295
1758.82495,0.95289
1756.89642,0.95290
1754.96788,0.95289
1753.03934,0.95257
1751.11081,0.95143
1749.18227,0.94995
1747.25373,0.94954
1745.32520,0.94970
1743.39666,0.94974
1741.46813,0.94952
1739.53959,0.94903
1737.61105,0.94859
1735.68252,0.94799
1733.75398,0.94715
1731.82545,0.94752
1729.89691,0.94862
1727.96837,0.94952
1726.03984,0.95007
1724.11130,0.95037
1722.18276,0.95051
1720.25423,0.95027
1718.32569,0.94889
1716.39716,0.94702
1714.46862,0.94744
1712.54008,0.94847
1710.61155,0.94907
1708.68301,0.94922
1706.75448,0.94908
1704.82594,0.94920
1702.89740,0.94973
1700.96887,0.94994
1699.04033,0.94966
1697.11180,0.95017
1695.18326,0.95183
1693.25472,0.95314
1691.32619,0.95358
1689.39765,0.95345
1687.46911,0.95322
1685.54058,0.95297
1683.61204,0.95262
1681.68351,0.95302
1679.75497,0.95376
1677.82643,0.95425
1675.89790,0.95429
1673.96936,0.95412
1672.04083,0.95395
1670.11229,0.95384
1668.18375,0.95453
1666.25522,0.95533
1664.32668,0.95545
1662.39814,0.95530
1660.46961,0.95556
1658.54107,0.95570
1656.61254,0.95523
1654.68400,0.95400
1652.75546,0.95247
1650.82693,0.95245
1648.89839,0.95233
1646.96986,0.95204
1645.04132,0.95296
1643.11278,0.95387
1641.18425,0.95407
1639.25571,0.95350
1637.32718,0.95166
1635.39864,0.94806
1633.47010,0.94544
1631.54157,0.94363
1629.61303,0.94171
1627.68449,0.94064
1625.75596,0.94139
1623.82742,0.94359
1621.89889,0.94621
1619.97035,0.94763
1618.04181,0.94799
1616.11328,0.94840
1614.18474,0.94951
1612.25621,0.95037
1610.32767,0.95049
1608.39913,0.94961
1606.47060,0.94793
1604.54206,0.94663
1602.61352,0.94727
1600.68499,0.94995
1598.75645,0.95272
1596.82792,0.95430
1594.89938,0.95442
1592.97084,0.95266
1591.04231,0.94837
1589.11377,0.94170
1587.18524,0.93477
1585.25670,0.92870
1583.32816,0.92268
1581.39963,0.91728
1579.47109,0.91448
1577.54256,0.91593
1575.61402,0.92384
1573.68548,0.93182
1571.75695,0.93690
1569.82841,0.94216
1567.89987,0.94657
1565.97134,0.94769
1564.04280,0.94642
1562.11427,0.94430
1560.18573,0.94054
1558.25719,0.93161
1556.32866,0.92997
1554.40012,0.93414
1552.47159,0.93913
1550.54305,0.94393
1548.61451,0.94788
1546.68598,0.95000
1544.75744,0.95056
1542.82890,0.95034
1540.90037,0.95133
1538.97183,0.95480
1537.04330,0.95663
1535.11476,0.95715
1533.18622,0.95740
1531.25769,0.95784
1529.32915,0.95793
1527.40062,0.95729
1525.47208,0.95610
1523.54354,0.95327
1521.61501,0.94331
1519.68647,0.93021
1517.75793,0.92102
1515.82940,0.91612
1513.90086,0.91698
1511.97233,0.91952
1510.04379,0.91985
1508.11525,0.90800
1506.18672,0.86975
1504.25818,0.84962
1502.32965,0.84040
1500.40111,0.83375
1498.47257,0.83391
1496.54404,0.84690
1494.61550,0.86365
1492.68697,0.87478
1490.75843,0.87908
1488.82989,0.87142
1486.90136,0.86053
1484.97282,0.85773
1483.04428,0.86172
1481.11575,0.86999
1479.18721,0.87871
1477.25868,0.88619
1475.33014,0.89340
1473.40160,0.90208
1471.47307,0.91058
1469.54453,0.91405
1467.61600,0.91450
1465.68746,0.91370
1463.75892,0.91333
1461.83039,0.91404
1459.90185,0.91354
1457.97331,0.90238
1456.04478,0.87397
1454.11624,0.85664
1452.18771,0.84694
1450.25917,0.84214
1448.33063,0.84686
1446.40210,0.86132
1444.47356,0.87643
1442.54503,0.88593
1440.61649,0.88725
1438.68795,0.88068
1436.75942,0.86868
1434.83088,0.86027
1432.90235,0.85776
1430.97381,0.85730
1429.04527,0.86047
1427.11674,0.86582
1425.18820,0.87076
1423.25966,0.87655
1421.33113,0.88342
1419.40259,0.89034
1417.47406,0.89450
1415.54552,0.89463
1413.61698,0.89316
1411.68845,0.89131
1409.75991,0.88963
1407.83138,0.88793
1405.90284,0.88630
1403.97430,0.88643
1402.04577,0.88914
1400.11723,0.89392
1398.18869,0.90068
1396.26016,0.90838
1394.33162,0.91625
1392.40309,0.92246
1390.47455,0.92642
1388.54601,0.92935
1386.61748,0.93191
1384.68894,0.93380
1382.76041,0.93489
1380.83187,0.93536
1378.90333,0.93528
1376.97480,0.93412
1375.04626,0.93073
1373.11773,0.92616
1371.18919,0.92429
1369.26065,0.92620
1367.33212,0.93042
1365.40358,0.93426
1363.47504,0.93682
1361.54651,0.93880
1359.61797,0.94038
1357.68944,0.94149
1355.76090,0.94254
1353.83236,0.94383
1351.90383,0.94478
1349.97529,0.94438
1348.04676,0.94210
1346.11822,0.93835
1344.18968,0.93519
1342.26115,0.93584
1340.33261,0.94203
1338.40407,0.95078
1336.47554,0.95659
1334.54700,0.95948
1332.61847,0.96091
1330.68993,0.96115
1328.76139,0.95985
1326.83286,0.95600
1324.90432,0.94847
1322.97579,0.93818
1321.04725,0.92902
1319.11871,0.92432
1317.19018,0.92208
1315.26164,0.91648
1313.33311,0.90661
1311.40457,0.89927
1309.47603,0.89936
1307.54750,0.90308
1305.61896,0.90268
1303.69042,0.89361
1301.76189,0.87897
1299.83335,0.86500
1297.90482,0.85223
1295.97628,0.83566
1294.04774,0.81351
1292.11921,0.79274
1290.19067,0.78346
1288.26214,0.78767
1286.33360,0.79806
1284.40506,0.80856
1282.47653,0.81885
1280.54799,0.82953
1278.61945,0.83966
1276.69092,0.84814
1274.76238,0.85370
1272.83385,0.85487
1270.90531,0.85214
1268.97677,0.84973
1267.04824,0.85228
1265.11970,0.86028
1263.19117,0.87059
1261.26263,0.88010
1259.33409,0.88758
1257.40556,0.89271
1255.47702,0.89504
1253.54849,0.89437
1251.61995,0.89223
1249.69141,0.89142
1247.76288,0.89335
1245.83434,0.89678
1243.90580,0.89952
1241.97727,0.90049
1240.04873,0.90021
1238.12020,0.89988
1236.19166,0.90003
1234.26312,0.89947
1232.33459,0.89435
1230.40605,0.87909
1228.47752,0.85325
1226.54898,0.82804
1224.62044,0.81783
1222.69191,0.82539
1220.76337,0.84211
1218.83483,0.85920
1216.90630,0.87245
1214.97776,0.88099
1213.04923,0.88603
1211.12069,0.89035
1209.19215,0.89582
1207.26362,0.90163
1205.33508,0.90640
1203.40655,0.90991
1201.47801,0.91257
1199.54947,0.91491
1197.62094,0.91736
1195.69240,0.91986
1193.76387,0.92189
1191.83533,0.92294
1189.90679,0.92264
1187.97826,0.92118
1186.04972,0.91974
1184.12118,0.91964
1182.19265,0.92128
1180.26411,0.92389
1178.33558,0.92593
1176.40704,0.92601
1174.47850,0.92332
1172.54997,0.91780
1170.62143,0.91111
1168.69290,0.90706
1166.76436,0.90832
1164.83582,0.91324
1162.90729,0.91841
1160.97875,0.92234
1159.05021,0.92509
1157.12168,0.92678
1155.19314,0.92692
1153.26461,0.92414
1151.33607,0.91707
1149.40753,0.90706
1147.47900,0.89885
1145.55046,0.89544
1143.62193,0.89505
1141.69339,0.89556
1139.76485,0.89624
1137.83632,0.89447
1135.90778,0.88635
1133.97924,0.87021
1132.05071,0.84670
1130.12217,0.81754
1128.19364,0.78660
1126.26510,0.76096
1124.33656,0.74868
1122.40803,0.75295
1120.47949,0.76894
1118.55096,0.78814
1116.62242,0.80303
1114.69388,0.80833
1112.76535,0.80578
1110.83681,0.80469
1108.90828,0.81085
1106.97974,0.82234
1105.05120,0.83613
1103.12267,0.84962
1101.19413,0.86012
1099.26559,0.86691
1097.33706,0.87065
1095.40852,0.87149
1093.47999,0.86980
1091.55145,0.86719
1089.62291,0.86615
1087.69438,0.86900
1085.76584,0.87518
1083.83731,0.87945
1081.90877,0.87562
1079.98023,0.86346
1078.05170,0.85048
1076.12316,0.84510
1074.19462,0.84996
1072.26609,0.86223
1070.33755,0.87689
1068.40902,0.88970
1066.48048,0.89913
1064.55194,0.90571
1062.62341,0.91034
1060.69487,0.91351
1058.76634,0.91535
1056.83780,0.91589
1054.90926,0.91531
1052.98073,0.91355
1051.05219,0.90960
1049.12366,0.90062
1047.19512,0.88280
1045.26658,0.85813
1043.33805,0.83928
1041.40951,0.83852
1039.48097,0.85334
1037.55244,0.87177
1035.62390,0.88614
1033.69537,0.89516
1031.76683,0.89900
1029.83829,0.89769
1027.90976,0.89281
1025.98122,0.88816
1024.05269,0.88737
1022.12415,0.89044
1020.19561,0.89367
1018.26708,0.89309
1016.33854,0.88701
1014.41000,0.87586
1012.48147,0.85982
1010.55293,0.83767
1008.62440,0.81134
1006.69586,0.78982
1004.76732,0.78230
1002.83879,0.78874
1000.91025,0.80197
998.98172,0.81637
997.05318,0.83048
995.12464,0.84400
993.19611,0.85614
991.26757,0.86635
989.33904,0.87475
987.41050,0.88182
985.48196,0.88791
983.55343,0.89309
981.62489,0.89724
979.69635,0.90012
977.76782,0.90132
975.83928,0.90046
973.91075,0.89714
971.98221,0.89073
970.05367,0.88068
968.12514,0.86729
966.19660,0.85335
964.26807,0.84392
962.33953,0.84157
960.41099,0.84307
958.48246,0.84378
956.55392,0.84449
954.62538,0.85007
952.69685,0.86168
950.76831,0.87483
948.83978,0.88527
946.91124,0.89235
944.98270,0.89724
943.05417,0.90116
941.12563,0.90451
939.19710,0.90626
937.26856,0.90539
935.34002,0.90336
933.41149,0.90360
931.48295,0.90707
929.55442,0.91110
927.62588,0.91324
925.69734,0.91338
923.76881,0.91261
921.84027,0.91181
919.91173,0.91081
917.98320,0.90891
916.05466,0.90648
914.12613,0.90497
912.19759,0.90505
910.26905,0.90573
908.34052,0.90501
906.41198,0.90069
904.48345,0.89139
902.55491,0.87755
900.62637,0.86187
898.69784,0.84856
896.76930,0.84137
894.84076,0.84166
892.91223,0.84802
890.98369,0.85772
889.05516,0.86853
887.12662,0.87921
885.19808,0.88910
883.26955,0.89784
881.34101,0.90477
879.41248,0.90705
877.48394,0.90096
875.55540,0.89062
873.62687,0.88784
871.69833,0.89569
869.76980,0.90474
867.84126,0.90591
865.91272,0.89893
863.98419,0.89302
862.05565,0.89634
860.12711,0.90574
858.19858,0.91311
856.27004,0.91469
854.34151,0.91035
852.41297,0.90044
850.48443,0.88482
848.55590,0.86345
846.62736,0.83802
844.69883,0.81260
842.77029,0.79603
840.84175,0.79882
838.91322,0.81983
836.98468,0.84526
835.05614,0.86322
833.12761,0.87108
831.19907,0.87437
829.27054,0.87920
827.34200,0.88189
825.41346,0.87667
823.48493,0.86996
821.55639,0.87167
819.62786,0.88149
817.69932,0.89285
815.77078,0.90150
813.84225,0.90705
811.91371,0.91046
809.98517,0.91221
808.05664,0.91244
806.12810,0.91134
804.19957,0.90908
802.27103,0.90596
800.34249,0.90266
798.41396,0.90058
796.48542,0.90160
794.55689,0.90582
792.62835,0.91061
790.69981,0.91346
788.77128,0.91293
786.84274,0.90612
784.91421,0.89176
782.98567,0.87492
781.05713,0.85957
779.12860,0.84452
777.20006,0.83308
775.27152,0.83239
773.34299,0.84113
771.41445,0.84904
769.48592,0.84808
767.55738,0.84224
765.62884,0.84357
763.70031,0.85582
761.77177,0.87064
759.84324,0.88084
757.91470,0.88725
755.98616,0.89343
754.05763,0.90067
752.12909,0.90789
750.20055,0.91325
748.27202,0.91494
746.34348,0.91053
744.41495,0.89813
742.48641,0.88049
740.55787,0.86545
738.62934,0.85913
736.70080,0.86183
734.77227,0.87136
732.84373,0.88458
730.91519,0.89394
728.98666,0.88907
727.05812,0.86796
725.12959,0.83692
723.20105,0.80410
721.27251,0.78710
719.34398,0.79953
717.41544,0.82366
715.48690,0.83801
713.55837,0.84655
711.62983,0.85856
709.70130,0.87040
707.77276,0.87507
705.84422,0.87321
703.91569,0.87070
701.98715,0.87265
700.05862,0.87966
698.13008,0.88840
696.20154,0.89558
694.27301,0.90064
692.34447,0.90442
690.41593,0.90688
688.48740,0.90780
686.55886,0.90773
684.63033,0.90771
682.70179,0.90839
680.77325,0.90939
678.84472,0.91010
676.91618,0.91034
674.98765,0.91021
673.05911,0.90888
671.13057,0.90482
669.20204,0.89996
667.27350,0.90342
665.34497,0.91049
663.41643,0.91345
661.48789,0.91275
659.55936,0.91008
657.63082,0.90688
655.70228,0.89923
653.77375,0.88479
651.84521,0.87346
649.91668,0.87518
647.98814,0.88613
646.05960,0.89569
644.13107,0.89738
642.20253,0.89175
640.27400,0.88543
638.34546,0.88532
636.41692,0.89195
634.48839,0.90067
632.55985,0.90755
630.63131,0.91201
628.70278,0.91503
626.77424,0.91731
624.84571,0.91896
622.91717,0.92005
620.98863,0.92074
619.06010,0.92100
617.13156,0.92159
615.20303,0.92297
613.27449,0.92387
611.34595,0.92347
609.41742,0.92204
607.48888,0.92054
605.56035,0.91995
603.63181,0.91868
601.70327,0.91325
599.77474,0.90307
597.84620,0.89350
595.91766,0.89056
593.98913,0.89469
592.06059,0.90216
590.13206,0.90884
588.20352,0.91278
586.27498,0.91387
584.34645,0.91216
582.41791,0.90906
580.48938,0.90776
578.56084,0.90984
576.63230,0.91396
574.70377,0.91812
572.77523,0.92119
570.84669,0.92341
568.91816,0.92528
566.98962,0.92656
565.06109,0.92669
563.13255,0.92496
561.20401,0.92024
559.27548,0.91139
557.34694,0.89583
555.41841,0.87081
553.48987,0.84025
551.56133,0.81396
549.63280,0.80092
547.70426,0.80648
545.77573,0.82711
543.84719,0.85095
541.91865,0.86970
539.99012,0.88282
538.06158,0.89236
536.13304,0.90004
534.20451,0.90591
532.27597,0.90921
530.34744,0.90954
528.41890,0.90634
526.49036,0.89698
524.56183,0.88041
522.63329,0.86434
520.70476,0.85775
518.77622,0.86357
516.84768,0.87521
514.91915,0.88277
512.99061,0.88252
511.06207,0.87173
509.13354,0.85018
507.20500,0.82639
505.27647,0.81418
503.34793,0.82052
501.41939,0.84074
499.49086,0.86124
497.56232,0.87472
495.63379,0.88233
493.70525,0.88650
491.77671,0.88997
489.84818,0.89348
487.91964,0.89554
485.99110,0.89592
484.06257,0.89690
482.13403,0.89932
480.20550,0.90124
478.27696,0.90104
476.34842,0.89819
474.41989,0.89385
472.49135,0.88982
470.56282,0.88793
468.63428,0.88888
466.70574,0.89265
464.77721,0.89784
462.84867,0.90196
460.92014,0.90415
458.99160,0.90535
457.06306,0.90643
455.13453,0.90730
453.20599,0.90791
451.27745,0.90758
449.34892,0.90634
447.42038,0.90520
445.49185,0.90483
443.56331,0.90574
441.63477,0.90746
439.70624,0.90840
437.77770,0.90678
435.84917,0.90004
433.92063,0.88901
431.99209,0.87916
430.06356,0.87525
428.13502,0.87819
426.20648,0.88399
424.27795,0.88773
422.34941,0.88819
420.42088,0.88700
418.49234,0.88590
416.56380,0.88899
414.63527,0.89474
412.70673,0.90101
410.77820,0.90591
408.84966,0.90841
406.92112,0.90866
404.99259,0.90683
403.06405,0.90447
401.13552,0.90204
399.20698,0.89704
