3997.85540,0.88726
3995.92686,0.88727
3993.99833,0.88730
3992.06979,0.88728
3990.14125,0.88718
3988.21272,0.88705
3986.28418,0.88699
3984.35565,0.88701
3982.42711,0.88700
3980.49857,0.88697
3978.57004,0.88703
3976.64150,0.88718
3974.71297,0.88734
3972.78443,0.88751
3970.85589,0.88760
3968.92736,0.88753
3966.99882,0.88747
3965.07029,0.88755
3963.14175,0.88768
3961.21321,0.88782
3959.28468,0.88796
3957.35614,0.88795
3955.42760,0.88785
3953.49907,0.88794
3951.57053,0.88818
3949.64200,0.88826
3947.71346,0.88817
3945.78492,0.88827
3943.85639,0.88842
3941.92785,0.88832
3939.99932,0.88820
3938.07078,0.88826
3936.14224,0.88841
3934.21371,0.88859
3932.28517,0.88855
3930.35663,0.88835
3928.42810,0.88846
3926.49956,0.88878
3924.57103,0.88890
3922.64249,0.88893
3920.71395,0.88908
3918.78542,0.88905
3916.85688,0.88870
3914.92835,0.88856
3912.99981,0.88873
3911.07127,0.88890
3909.14274,0.88907
3907.21420,0.88944
3905.28566,0.88976
3903.35713,0.88961
3901.42859,0.88921
3899.50006,0.88873
3897.57152,0.88850
3895.64298,0.88883
3893.71445,0.88926
3891.78591,0.88914
3889.85738,0.88883
3887.92884,0.88905
3886.00030,0.88927
3884.07177,0.88917
3882.14323,0.88909
3880.21470,0.88882
3878.28616,0.88874
3876.35762,0.88905
3874.42909,0.88935
3872.50055,0.88957
3870.57201,0.88959
3868.64348,0.88937
3866.71494,0.88950
3864.78641,0.88965
3862.85787,0.88951
3860.92933,0.88960
3859.00080,0.88998
3857.07226,0.89047
3855.14373,0.89082
3853.21519,0.89008
3851.28665,0.88927
3849.35812,0.88950
3847.42958,0.88993
3845.50104,0.89035
3843.57251,0.89074
3841.64397,0.89100
3839.71544,0.89084
3837.78690,0.89016
3835.85836,0.88982
3833.92983,0.88985
3832.00129,0.88984
3830.07276,0.88991
3828.14422,0.89013
3826.21568,0.89027
3824.28715,0.89043
3822.35861,0.89058
3820.43008,0.89028
3818.50154,0.89026
3816.57300,0.89039
3814.64447,0.89032
3812.71593,0.89051
3810.78739,0.89090
3808.85886,0.89129
3806.93032,0.89142
3805.00179,0.89149
3803.07325,0.89160
3801.14471,0.89107
3799.21618,0.89067
3797.28764,0.89063
3795.35911,0.89046
3793.43057,0.89057
3791.50203,0.89084
3789.57350,0.89099
3787.64496,0.89104
3785.71642,0.89095
3783.78789,0.89081
3781.85935,0.89091
3779.93082,0.89092
3778.00228,0.89065
3776.07374,0.89058
3774.14521,0.89077
3772.21667,0.89102
3770.28814,0.89101
3768.35960,0.89065
3766.43106,0.89044
3764.50253,0.89053
3762.57399,0.89090
3760.64546,0.89123
3758.71692,0.89116
3756.78838,0.89121
3754.85985,0.89164
3752.93131,0.89199
3751.00277,0.89149
3749.07424,0.89102
3747.14570,0.89153
3745.21717,0.89176
3743.28863,0.89142
3741.36009,0.89155
3739.43156,0.89221
3737.50302,0.89300
3735.57449,0.89322
3733.64595,0.89248
3731.71741,0.89203
3729.78888,0.89222
3727.86034,0.89264
3725.93180,0.89281
3724.00327,0.89257
3722.07473,0.89231
3720.14620,0.89232
3718.21766,0.89251
3716.28912,0.89281
3714.36059,0.89319
3712.43205,0.89315
3710.50352,0.89206
3708.57498,0.89157
3706.64644,0.89194
3704.71791,0.89238
3702.78937,0.89240
3700.86084,0.89199
3698.93230,0.89183
3697.00376,0.89201
3695.07523,0.89235
3693.14669,0.89291
3691.21815,0.89342
3689.28962,0.89299
3687.36108,0.89232
3685.43255,0.89242
3683.50401,0.89283
3681.57547,0.89331
3679.64694,0.89373
3677.71840,0.89386
3675.78987,0.89317
3673.86133,0.89272
3671.93279,0.89320
3670.00426,0.89317
3668.07572,0.89271
3666.14718,0.89284
3664.21865,0.89314
3662.29011,0.89324
3660.36158,0.89324
3658.43304,0.89336
3656.50450,0.89336
3654.57597,0.89330
3652.64743,0.89360
3650.71890,0.89395
3648.79036,0.89318
3646.86182,0.89218
3644.93329,0.89215
3643.00475,0.89232
3641.07622,0.89241
3639.14768,0.89252
3637.21914,0.89276
3635.29061,0.89300
3633.36207,0.89324
3631.43353,0.89355
3629.50500,0.89350
3627.57646,0.89290
3625.64793,0.89296
3623.71939,0.89333
3621.79085,0.89350
3619.86232,0.89328
3617.93378,0.89303
3616.00525,0.89320
3614.07671,0.89337
3612.14817,0.89346
3610.21964,0.89364
3608.29110,0.89356
3606.36256,0.89324
3604.43403,0.89328
3602.50549,0.89353
3600.57696,0.89358
3598.64842,0.89359
3596.71988,0.89377
3594.79135,0.89384
3592.86281,0.89383
3590.93428,0.89404
3589.00574,0.89407
3587.07720,0.89344
3585.14867,0.89318
3583.22013,0.89344
3581.29160,0.89355
3579.36306,0.89355
3577.43452,0.89361
3575.50599,0.89367
3573.57745,0.89374
3571.64891,0.89400
3569.72038,0.89445
3567.79184,0.89451
3565.86331,0.89361
3563.93477,0.89308
3562.00623,0.89325
3560.07770,0.89349
3558.14916,0.89357
3556.22063,0.89348
3554.29209,0.89328
3552.36355,0.89309
3550.43502,0.89321
3548.50648,0.89348
3546.57794,0.89341
3544.64941,0.89295
3542.72087,0.89267
3540.79234,0.89272
3538.86380,0.89286
3536.93526,0.89292
3535.00673,0.89294
3533.07819,0.89302
3531.14966,0.89306
3529.22112,0.89293
3527.29258,0.89274
3525.36405,0.89264
3523.43551,0.89258
3521.50697,0.89251
3519.57844,0.89239
3517.64990,0.89216
3515.72137,0.89193
3513.79283,0.89181
3511.86429,0.89167
3509.93576,0.89136
3508.00722,0.89116
3506.07869,0.89128
3504.15015,0.89150
3502.22161,0.89173
3500.29308,0.89202
3498.36454,0.89222
3496.43601,0.89224
3494.50747,0.89224
3492.57893,0.89237
3490.65040,0.89254
3488.72186,0.89253
3486.79332,0.89237
3484.86479,0.89234
3482.93625,0.89242
3481.00772,0.89243
3479.07918,0.89243
3477.15064,0.89245
3475.22211,0.89246
3473.29357,0.89258
3471.36504,0.89274
3469.43650,0.89279
3467.50796,0.89277
3465.57943,0.89277
3463.65089,0.89276
3461.72235,0.89265
3459.79382,0.89252
3457.86528,0.89242
3455.93675,0.89230
3454.00821,0.89223
3452.07967,0.89237
3450.15114,0.89266
3448.22260,0.89281
3446.29407,0.89268
3444.36553,0.89250
3442.43699,0.89243
3440.50846,0.89248
3438.57992,0.89262
3436.65139,0.89272
3434.72285,0.89268
3432.79431,0.89257
3430.86578,0.89251
3428.93724,0.89252
3427.00870,0.89252
3425.08017,0.89253
3423.15163,0.89262
3421.22310,0.89268
3419.29456,0.89268
3417.36602,0.89266
3415.43749,0.89259
3413.50895,0.89249
3411.58042,0.89249
3409.65188,0.89254
3407.72334,0.89252
3405.79481,0.89239
3403.86627,0.89225
3401.93773,0.89217
3400.00920,0.89221
3398.08066,0.89234
3396.15213,0.89247
3394.22359,0.89251
3392.29505,0.89252
3390.36652,0.89258
3388.43798,0.89261
3386.50945,0.89252
3384.58091,0.89239
3382.65237,0.89237
3380.72384,0.89251
3378.79530,0.89271
3376.86677,0.89278
3374.93823,0.89273
3373.00969,0.89271
3371.08116,0.89272
3369.15262,0.89270
3367.22408,0.89270
3365.29555,0.89276
3363.36701,0.89282
3361.43848,0.89288
3359.50994,0.89294
3357.58140,0.89296
3355.65287,0.89290
3353.72433,0.89288
3351.79580,0.89291
3349.86726,0.89292
3347.93872,0.89295
3346.01019,0.89300
3344.08165,0.89296
3342.15311,0.89285
3340.22458,0.89282
3338.29604,0.89295
3336.36751,0.89314
3334.43897,0.89326
3332.51043,0.89331
3330.58190,0.89339
3328.65336,0.89343
3326.72483,0.89341
3324.79629,0.89342
3322.86775,0.89342
3320.93922,0.89340
3319.01068,0.89343
3317.08215,0.89347
3315.15361,0.89346
3313.22507,0.89355
3311.29654,0.89375
3309.36800,0.89381
3307.43946,0.89369
3305.51093,0.89358
3303.58239,0.89360
3301.65386,0.89368
3299.72532,0.89374
3297.79678,0.89382
3295.86825,0.89396
3293.93971,0.89412
3292.01118,0.89416
3290.08264,0.89417
3288.15410,0.89425
3286.22557,0.89436
3284.29703,0.89442
3282.36849,0.89445
3280.43996,0.89446
3278.51142,0.89450
3276.58289,0.89457
3274.65435,0.89463
3272.72581,0.89466
3270.79728,0.89470
3268.86874,0.89473
3266.94021,0.89475
3265.01167,0.89470
3263.08313,0.89460
3261.15460,0.89458
3259.22606,0.89471
3257.29753,0.89487
3255.36899,0.89498
3253.44045,0.89504
3251.51192,0.89514
3249.58338,0.89524
3247.65484,0.89527
3245.72631,0.89529
3243.79777,0.89531
3241.86924,0.89534
3239.94070,0.89538
3238.01216,0.89541
3236.08363,0.89538
3234.15509,0.89533
3232.22656,0.89533
3230.29802,0.89536
3228.36948,0.89539
3226.44095,0.89547
3224.51241,0.89559
3222.58387,0.89567
3220.65534,0.89572
3218.72680,0.89574
3216.79827,0.89571
3214.86973,0.89562
3212.94119,0.89556
3211.01266,0.89561
3209.08412,0.89566
3207.15559,0.89569
3205.22705,0.89574
3203.29851,0.89581
3201.36998,0.89593
3199.44144,0.89597
3197.51290,0.89593
3195.58437,0.89591
3193.65583,0.89589
3191.72730,0.89581
3189.79876,0.89573
3187.87022,0.89566
3185.94169,0.89557
3184.01315,0.89551
3182.08462,0.89549
3180.15608,0.89543
3178.22754,0.89526
3176.29901,0.89501
3174.37047,0.89481
3172.44194,0.89470
3170.51340,0.89458
3168.58486,0.89444
3166.65633,0.89433
3164.72779,0.89419
3162.79925,0.89404
3160.87072,0.89403
3158.94218,0.89417
3157.01365,0.89434
3155.08511,0.89455
3153.15657,0.89477
3151.22804,0.89471
3149.29950,0.89414
3147.37097,0.89333
3145.44243,0.89276
3143.51389,0.89277
3141.58536,0.89338
3139.65682,0.89417
3137.72828,0.89473
3135.79975,0.89501
3133.87121,0.89518
3131.94268,0.89530
3130.01414,0.89539
3128.08560,0.89545
3126.15707,0.89547
3124.22853,0.89542
3122.30000,0.89532
3120.37146,0.89525
3118.44292,0.89524
3116.51439,0.89521
3114.58585,0.89509
3112.65732,0.89487
3110.72878,0.89467
3108.80024,0.89445
3106.87171,0.89404
3104.94317,0.89345
3103.01463,0.89288
3101.08610,0.89231
3099.15756,0.89163
3097.22903,0.89088
3095.30049,0.89018
3093.37195,0.88961
3091.44342,0.88906
3089.51488,0.88836
3087.58635,0.88745
3085.65781,0.88644
3083.72927,0.88546
3081.80074,0.88455
3079.87220,0.88381
3077.94366,0.88343
3076.01513,0.88342
3074.08659,0.88357
3072.15806,0.88350
3070.22952,0.88269
3068.30098,0.88030
3066.37245,0.87553
3064.44391,0.86867
3062.51538,0.86157
3060.58684,0.85601
3058.65830,0.85273
3056.72977,0.85197
3054.80123,0.85382
3052.87270,0.85782
3050.94416,0.86284
3049.01562,0.86771
3047.08709,0.87165
3045.15855,0.87457
3043.23001,0.87687
3041.30148,0.87896
3039.37294,0.88090
3037.44441,0.88247
3035.51587,0.88356
3033.58733,0.88413
3031.65880,0.88406
3029.73026,0.88331
3027.80173,0.88205
3025.87319,0.88066
3023.94465,0.87991
3022.01612,0.88030
3020.08758,0.88144
3018.15904,0.88259
3016.23051,0.88341
3014.30197,0.88378
3012.37344,0.88333
3010.44490,0.88206
3008.51636,0.88075
3006.58783,0.88035
3004.65929,0.88107
3002.73076,0.88235
3000.80222,0.88360
2998.87368,0.88456
2996.94515,0.88503
2995.01661,0.88501
2993.08808,0.88463
2991.15954,0.88390
2989.23100,0.88323
2987.30247,0.88316
2985.37393,0.88355
2983.44539,0.88386
2981.51686,0.88359
2979.58832,0.88248
2977.65979,0.88069
2975.73125,0.87835
2973.80271,0.87531
2971.87418,0.87144
2969.94564,0.86698
2968.01711,0.86224
2966.08857,0.85741
2964.16003,0.85253
2962.23150,0.84754
2960.30296,0.84278
2958.37442,0.83905
2956.44589,0.83695
2954.51735,0.83671
2952.58882,0.83806
2950.66028,0.84041
2948.73174,0.84311
2946.80321,0.84538
2944.87467,0.84650
2942.94614,0.84610
2941.01760,0.84411
2939.08906,0.84076
2937.16053,0.83647
2935.23199,0.83153
2933.30346,0.82633
2931.37492,0.82166
2929.44638,0.81825
2927.51785,0.81602
2925.58931,0.81470
2923.66077,0.81445
2921.73224,0.81547
2919.80370,0.81758
2917.87517,0.82041
2915.94663,0.82345
2914.01809,0.82635
2912.08956,0.82899
2910.16102,0.83145
2908.23249,0.83390
2906.30395,0.83643
2904.37541,0.83905
2902.44688,0.84160
2900.51834,0.84409
2898.58980,0.84665
2896.66127,0.84924
2894.73273,0.85172
2892.80420,0.85407
2890.87566,0.85633
2888.94712,0.85846
2887.01859,0.86033
2885.09005,0.86187
2883.16152,0.86290
2881.23298,0.86326
2879.30444,0.86288
2877.37591,0.86189
2875.44737,0.86052
2873.51883,0.85874
2871.59030,0.85669
2869.66176,0.85508
2867.73323,0.85437
2865.80469,0.85410
2863.87615,0.85361
2861.94762,0.85271
2860.01908,0.85124
2858.09055,0.84918
2856.16201,0.84711
2854.23347,0.84590
2852.30494,0.84616
2850.37640,0.84794
2848.44787,0.85061
2846.51933,0.85334
2844.59079,0.85561
2842.66226,0.85728
2840.73372,0.85838
2838.80518,0.85920
2836.87665,0.86036
2834.94811,0.86230
2833.01958,0.86488
2831.09104,0.86763
2829.16250,0.87016
2827.23397,0.87225
2825.30543,0.87396
2823.37690,0.87555
2821.44836,0.87710
2819.51982,0.87851
2817.59129,0.87965
2815.66275,0.88061
2813.73421,0.88150
2811.80568,0.88227
2809.87714,0.88283
2807.94861,0.88320
2806.02007,0.88349
2804.09153,0.88388
2802.16300,0.88445
2800.23446,0.88509
2798.30593,0.88562
2796.37739,0.88599
2794.44885,0.88629
2792.52032,0.88659
2790.59178,0.88693
2788.66325,0.88726
2786.73471,0.88756
2784.80617,0.88782
2782.87764,0.88808
2780.94910,0.88841
2779.02056,0.88880
2777.09203,0.88927
2775.16349,0.88974
2773.23496,0.89001
2771.30642,0.89011
2769.37788,0.89022
2767.44935,0.89036
2765.52081,0.89048
2763.59228,0.89060
2761.66374,0.89075
2759.73520,0.89089
2757.80667,0.89102
2755.87813,0.89116
2753.94959,0.89127
2752.02106,0.89132
2750.09252,0.89143
2748.16399,0.89155
2746.23545,0.89160
2744.30691,0.89162
2742.37838,0.89169
2740.44984,0.89181
2738.52131,0.89197
2736.59277,0.89206
2734.66423,0.89209
2732.73570,0.89213
2730.80716,0.89218
2728.87863,0.89223
2726.95009,0.89235
2725.02155,0.89249
2723.09302,0.89261
2721.16448,0.89270
2719.23594,0.89279
2717.30741,0.89286
2715.37887,0.89296
2713.45034,0.89310
2711.52180,0.89327
2709.59326,0.89340
2707.66473,0.89346
2705.73619,0.89344
2703.80766,0.89343
2701.87912,0.89342
2699.95058,0.89345
2698.02205,0.89351
2696.09351,0.89349
2694.16497,0.89327
2692.23644,0.89291
2690.30790,0.89254
2688.37937,0.89219
2686.45083,0.89183
2684.52229,0.89153
2682.59376,0.89140
2680.66522,0.89145
2678.73669,0.89163
2676.80815,0.89189
2674.87961,0.89218
2672.95108,0.89245
2671.02254,0.89263
2669.09401,0.89276
2667.16547,0.89295
2665.23693,0.89321
2663.30840,0.89349
2661.37986,0.89383
2659.45132,0.89419
2657.52279,0.89452
2655.59425,0.89482
2653.66572,0.89503
2651.73718,0.89519
2649.80864,0.89538
2647.88011,0.89563
2645.95157,0.89585
2644.02304,0.89602
2642.09450,0.89617
2640.16596,0.89633
2638.23743,0.89653
2636.30889,0.89674
2634.38035,0.89692
2632.45182,0.89710
2630.52328,0.89725
2628.59475,0.89739
2626.66621,0.89760
2624.73767,0.89779
2622.80914,0.89786
2620.88060,0.89789
2618.95207,0.89800
2617.02353,0.89817
2615.09499,0.89832
2613.16646,0.89835
2611.23792,0.89823
2609.30939,0.89813
2607.38085,0.89824
2605.45231,0.89855
2603.52378,0.89894
2601.59524,0.89929
2599.66670,0.89957
2597.73817,0.89976
2595.80963,0.89984
2593.88110,0.89984
2591.95256,0.89979
2590.02402,0.89965
2588.09549,0.89941
2586.16695,0.89909
2584.23842,0.89874
2582.30988,0.89845
2580.38134,0.89830
2578.45281,0.89833
2576.52427,0.89846
2574.59573,0.89856
2572.66720,0.89873
2570.73866,0.89899
2568.81013,0.89919
2566.88159,0.89937
2564.95305,0.89965
2563.02452,0.89995
2561.09598,0.90018
2559.16745,0.90038
2557.23891,0.90057
2555.31037,0.90074
2553.38184,0.90093
2551.45330,0.90113
2549.52476,0.90127
2547.59623,0.90134
2545.66769,0.90138
2543.73916,0.90144
2541.81062,0.90150
2539.88208,0.90156
2537.95355,0.90166
2536.02501,0.90180
2534.09648,0.90193
2532.16794,0.90198
2530.23940,0.90199
2528.31087,0.90206
2526.38233,0.90225
2524.45380,0.90248
2522.52526,0.90260
2520.59672,0.90259
2518.66819,0.90258
2516.73965,0.90257
2514.81111,0.90245
2512.88258,0.90225
2510.95404,0.90216
2509.02551,0.90218
2507.09697,0.90224
2505.16843,0.90234
2503.23990,0.90248
2501.31136,0.90267
2499.38283,0.90294
2497.45429,0.90312
2495.52575,0.90318
2493.59722,0.90332
2491.66868,0.90362
2489.74014,0.90382
2487.81161,0.90388
2485.88307,0.90400
2483.95454,0.90421
2482.02600,0.90437
2480.09746,0.90447
2478.16893,0.90455
2476.24039,0.90457
2474.31186,0.90450
2472.38332,0.90447
2470.45478,0.90452
2468.52625,0.90457
2466.59771,0.90456
2464.66918,0.90447
2462.74064,0.90441
2460.81210,0.90445
2458.88357,0.90448
2456.95503,0.90441
2455.02649,0.90428
2453.09796,0.90412
2451.16942,0.90397
2449.24089,0.90393
2447.31235,0.90396
2445.38381,0.90393
2443.45528,0.90399
2441.52674,0.90424
2439.59821,0.90453
2437.66967,0.90469
2435.74113,0.90480
2433.81260,0.90492
2431.88406,0.90501
2429.95552,0.90505
2428.02699,0.90511
2426.09845,0.90526
2424.16992,0.90538
2422.24138,0.90536
2420.31284,0.90528
2418.38431,0.90521
2416.45577,0.90508
2414.52724,0.90490
2412.59870,0.90471
2410.67016,0.90440
2408.74163,0.90400
2406.81309,0.90367
2404.88456,0.90347
2402.95602,0.90344
2401.02748,0.90360
2399.09895,0.90393
2397.17041,0.90434
2395.24187,0.90464
2393.31334,0.90476
2391.38480,0.90484
2389.45627,0.90490
2387.52773,0.90496
2385.59919,0.90508
2383.67066,0.90521
2381.74212,0.90521
2379.81359,0.90506
2377.88505,0.90487
2375.95651,0.90475
2374.02798,0.90463
2372.09944,0.90436
2370.17090,0.90403
2368.24237,0.90389
2366.31383,0.90358
2364.38530,0.90253
2362.45676,0.90133
2360.52822,0.90113
2358.59969,0.90194
2356.67115,0.90283
2354.74262,0.90329
2352.81408,0.90350
2350.88554,0.90370
2348.95701,0.90395
2347.02847,0.90416
2345.09994,0.90408
2343.17140,0.90370
2341.24286,0.90349
2339.31433,0.90350
2337.38579,0.90357
2335.45725,0.90378
2333.52872,0.90412
2331.60018,0.90420
2329.67165,0.90393
2327.74311,0.90373
2325.81457,0.90380
2323.88604,0.90404
2321.95750,0.90442
2320.02897,0.90495
2318.10043,0.90559
2316.17189,0.90626
2314.24336,0.90691
2312.31482,0.90738
2310.38628,0.90748
2308.45775,0.90740
2306.52921,0.90752
2304.60068,0.90772
2302.67214,0.90782
2300.74360,0.90797
2298.81507,0.90825
2296.88653,0.90854
2294.95800,0.90878
2293.02946,0.90894
2291.10092,0.90909
2289.17239,0.90930
2287.24385,0.90960
2285.31532,0.90997
2283.38678,0.91045
2281.45824,0.91091
2279.52971,0.91119
2277.60117,0.91132
2275.67263,0.91133
2273.74410,0.91121
2271.81556,0.91102
2269.88703,0.91089
2267.95849,0.91088
2266.02995,0.91092
2264.10142,0.91095
2262.17288,0.91112
2260.24435,0.91143
2258.31581,0.91176
2256.38727,0.91207
2254.45874,0.91240
2252.53020,0.91264
2250.60166,0.91271
2248.67313,0.91267
2246.74459,0.91270
2244.81606,0.91278
2242.88752,0.91284
2240.95898,0.91303
2239.03045,0.91347
2237.10191,0.91402
2235.17338,0.91447
2233.24484,0.91481
2231.31630,0.91511
2229.38777,0.91545
2227.45923,0.91583
2225.53070,0.91620
2223.60216,0.91647
2221.67362,0.91644
2219.74509,0.91623
2217.81655,0.91608
2215.88801,0.91604
2213.95948,0.91618
2212.03094,0.91641
2210.10241,0.91653
2208.17387,0.91652
2206.24533,0.91646
2204.31680,0.91641
2202.38826,0.91649
2200.45973,0.91661
2198.53119,0.91662
2196.60265,0.91668
2194.67412,0.91708
2192.74558,0.91779
2190.81704,0.91832
2188.88851,0.91860
2186.95997,0.91907
2185.03144,0.91972
2183.10290,0.92015
2181.17436,0.92028
2179.24583,0.92054
2177.31729,0.92096
2175.38876,0.92111
2173.46022,0.92107
2171.53168,0.92118
2169.60315,0.92163
2167.67461,0.92238
2165.74607,0.92288
2163.81754,0.92278
2161.88900,0.92276
2159.96047,0.92307
2158.03193,0.92303
2156.10339,0.92268
2154.17486,0.92233
2152.24632,0.92193
2150.31779,0.92143
2148.38925,0.92082
2146.46071,0.92026
2144.53218,0.92002
2142.60364,0.92018
2140.67511,0.92039
2138.74657,0.92016
2136.81803,0.91954
2134.88950,0.91900
2132.96096,0.91866
2131.03242,0.91827
2129.10389,0.91797
2127.17535,0.91794
2125.24682,0.91794
2123.31828,0.91790
2121.38974,0.91786
2119.46121,0.91773
2117.53267,0.91764
2115.60414,0.91780
2113.67560,0.91804
2111.74706,0.91812
2109.81853,0.91800
2107.88999,0.91800
2105.96145,0.91841
2104.03292,0.91884
2102.10438,0.91884
2100.17585,0.91858
2098.24731,0.91851
2096.31877,0.91872
2094.39024,0.91896
2092.46170,0.91902
2090.53317,0.91888
2088.60463,0.91870
2086.67609,0.91868
2084.74756,0.91886
2082.81902,0.91910
2080.89049,0.91930
2078.96195,0.91950
2077.03341,0.91985
2075.10488,0.92024
2073.17634,0.92039
2071.24780,0.92029
2069.31927,0.92012
2067.39073,0.92002
2065.46220,0.92016
2063.53366,0.92052
2061.60512,0.92081
2059.67659,0.92099
2057.74805,0.92133
2055.81952,0.92185
2053.89098,0.92236
2051.96244,0.92301
2050.03391,0.92389
2048.10537,0.92467
2046.17683,0.92521
2044.24830,0.92561
2042.31976,0.92603
2040.39123,0.92672
2038.46269,0.92757
2036.53415,0.92815
2034.60562,0.92831
2032.67708,0.92836
2030.74855,0.92830
2028.82001,0.92803
2026.89147,0.92782
2024.96294,0.92777
2023.03440,0.92785
2021.10587,0.92820
2019.17733,0.92865
2017.24879,0.92884
2015.32026,0.92885
2013.39172,0.92884
2011.46318,0.92870
2009.53465,0.92841
2007.60611,0.92798
2005.67758,0.92724
2003.74904,0.92633
2001.82050,0.92554
1999.89197,0.92494
1997.96343,0.92463
1996.03490,0.92468
1994.10636,0.92507
1992.17782,0.92543
1990.24929,0.92517
1988.32075,0.92459
1986.39221,0.92441
1984.46368,0.92481
1982.53514,0.92522
1980.60661,0.92532
1978.67807,0.92557
1976.74953,0.92568
1974.82100,0.92492
1972.89246,0.92365
1970.96393,0.92272
1969.03539,0.92234
1967.10685,0.92218
1965.17832,0.92232
1963.24978,0.92279
1961.32125,0.92309
1959.39271,0.92325
1957.46417,0.92363
1955.53564,0.92395
1953.60710,0.92398
1951.67856,0.92398
1949.75003,0.92404
1947.82149,0.92410
1945.89296,0.92417
1943.96442,0.92423
1942.03588,0.92409
1940.10735,0.92393
1938.17881,0.92399
1936.25028,0.92406
1934.32174,0.92393
1932.39320,0.92343
1930.46467,0.92262
1928.53613,0.92177
1926.60759,0.92117
1924.67906,0.92068
1922.75052,0.91988
1920.82199,0.91918
1918.89345,0.91876
1916.96491,0.91826
1915.03638,0.91797
1913.10784,0.91807
1911.17931,0.91832
1909.25077,0.91838
1907.32223,0.91823
1905.39370,0.91804
1903.46516,0.91770
1901.53663,0.91722
1899.60809,0.91683
1897.67955,0.91651
1895.75102,0.91621
1893.82248,0.91631
1891.89394,0.91693
1889.96541,0.91783
1888.03687,0.91870
1886.10834,0.91934
1884.17980,0.91984
1882.25126,0.92034
1880.32273,0.92082
1878.39419,0.92112
1876.46566,0.92122
1874.53712,0.92117
1872.60858,0.92096
1870.68005,0.92059
1868.75151,0.92014
1866.82297,0.92030
1864.89444,0.92092
1862.96590,0.92140
1861.03737,0.92160
1859.10883,0.92171
1857.18029,0.92194
1855.25176,0.92213
1853.32322,0.92207
1851.39469,0.92190
1849.46615,0.92181
1847.53761,0.92168
1845.60908,0.92127
1843.68054,0.92058
1841.75200,0.92018
1839.82347,0.92004
1837.89493,0.91980
1835.96640,0.91941
1834.03786,0.91906
1832.10932,0.91869
1830.18079,0.91798
1828.25225,0.91724
1826.32372,0.91691
1824.39518,0.91655
1822.46664,0.91607
1820.53811,0.91558
1818.60957,0.91510
1816.68104,0.91488
1814.75250,0.91510
1812.82396,0.91567
1810.89543,0.91648
1808.96689,0.91737
1807.03835,0.91820
1805.10982,0.91892
1803.18128,0.91950
1801.25275,0.91993
1799.32421,0.92020
1797.39567,0.92038
1795.46714,0.92054
1793.53860,0.92061
1791.61007,0.92032
1789.68153,0.91994
1787.75299,0.91969
1785.82446,0.91940
1783.89592,0.91903
1781.96738,0.91861
1780.03885,0.91804
1778.11031,0.91756
1776.18178,0.91745
1774.25324,0.91762
1772.32470,0.91784
1770.39617,0.91805
1768.46763,0.91830
1766.53910,0.91854
1764.61056,0.91874
1762.68202,0.91884
1760.75349,0.91889
1758.82495,0.91905
1756.89642,0.91926
1754.96788,0.91951
1753.03934,0.91980
1751.11081,0.91990
1749.18227,0.91962
1747.25373,0.91918
1745.32520,0.91876
1743.39666,0.91832
1741.46813,0.91794
1739.53959,0.91784
1737.61105,0.91816
1735.68252,0.91875
1733.75398,0.91933
1731.82545,0.91965
1729.89691,0.91995
1727.96837,0.92022
1726.03984,0.92037
1724.11130,0.92030
1722.18276,0.92011
1720.25423,0.91997
1718.32569,0.91974
1716.39716,0.91895
1714.46862,0.91824
1712.54008,0.91807
1710.61155,0.91813
1708.68301,0.91833
1706.75448,0.91862
1704.82594,0.91897
1702.89740,0.91937
1700.96887,0.91983
1699.04033,0.92027
1697.11180,0.92035
1695.18326,0.92026
1693.25472,0.92028
1691.32619,0.92035
1689.39765,0.92036
1687.46911,0.92036
1685.54058,0.92038
1683.61204,0.92011
1681.68351,0.91978
1679.75497,0.91960
1677.82643,0.91949
1675.89790,0.91946
1673.96936,0.91942
1672.04083,0.91944
1670.11229,0.91960
1668.18375,0.92009
1666.25522,0.92071
1664.32668,0.92142
1662.39814,0.92241
1660.46961,0.92328
1658.54107,0.92386
1656.61254,0.92434
1654.68400,0.92484
1652.75546,0.92522
1650.82693,0.92535
1648.89839,0.92556
1646.96986,0.92553
1645.04132,0.92530
1643.11278,0.92520
1641.18425,0.92514
1639.25571,0.92501
1637.32718,0.92387
1635.39864,0.91878
1633.47010,0.91255
1631.54157,0.90788
1629.61303,0.90432
1627.68449,0.90381
1625.75596,0.90648
1623.82742,0.90978
1621.89889,0.91148
1619.97035,0.91100
1618.04181,0.90847
1616.11328,0.90256
1614.18474,0.89772
1612.25621,0.89590
1610.32767,0.89663
1608.39913,0.90029
1606.47060,0.90486
1604.54206,0.90824
1602.61352,0.91011
1600.68499,0.91091
1598.75645,0.91124
1596.82792,0.91149
1594.89938,0.91153
1592.97084,0.91033
1591.04231,0.90588
1589.11377,0.89643
1587.18524,0.88473
1585.25670,0.87695
1583.32816,0.87602
1581.39963,0.87931
1579.47109,0.88291
1577.54256,0.88579
1575.61402,0.88814
1573.68548,0.89058
1571.75695,0.89451
1569.82841,0.90209
1567.89987,0.90910
1565.97134,0.90985
1564.04280,0.90649
1562.11427,0.90158
1560.18573,0.89186
1558.25719,0.86416
1556.32866,0.85588
1554.40012,0.86408
1552.47159,0.87374
1550.54305,0.88423
1548.61451,0.89440
1546.68598,0.90105
1544.75744,0.90540
1542.82890,0.90936
1540.90037,0.91418
1538.97183,0.91844
1537.04330,0.91981
1535.11476,0.92022
1533.18622,0.92005
1531.25769,0.91932
1529.32915,0.91853
1527.40062,0.91794
1525.47208,0.91785
1523.54354,0.91887
1521.61501,0.92056
1519.68647,0.92188
1517.75793,0.92192
1515.82940,0.92134
1513.90086,0.92101
1511.97233,0.92067
1510.04379,0.92025
1508.11525,0.91361
1506.18672,0.88573
1504.25818,0.86197
1502.32965,0.83577
1500.40111,0.79535
1498.47257,0.73855
1496.54404,0.69026
1494.61550,0.68155
1492.68697,0.69300
1490.75843,0.71173
1488.82989,0.72487
1486.90136,0.71471
1484.97282,0.69820
1483.04428,0.68664
1481.11575,0.68482
1479.18721,0.69239
1477.25868,0.70413
1475.33014,0.71911
1473.40160,0.74625
1471.47307,0.77960
1469.54453,0.79613
1467.61600,0.80382
1465.68746,0.80853
1463.75892,0.81094
1461.83039,0.81306
1459.90185,0.81559
1457.97331,0.81524
1456.04478,0.80460
1454.11624,0.79321
1452.18771,0.78261
1450.25917,0.77575
1448.33063,0.78309
1446.40210,0.80523
1444.47356,0.82386
1442.54503,0.82471
1440.61649,0.79915
1438.68795,0.74388
1436.75942,0.66431
1434.83088,0.62346
1432.90235,0.63961
1430.97381,0.67864
1429.04527,0.72407
1427.11674,0.75769
1425.18820,0.77924
1423.25966,0.79231
1421.33113,0.79553
1419.40259,0.79052
1417.47406,0.78412
1415.54552,0.78029
1413.61698,0.77357
1411.68845,0.76692
1409.75991,0.77015
1407.83138,0.77944
1405.90284,0.78278
1403.97430,0.78104
1402.04577,0.78431
1400.11723,0.79553
1398.18869,0.81262
1396.26016,0.83023
1394.33162,0.84505
1392.40309,0.85464
1390.47455,0.86030
1388.54601,0.86502
1386.61748,0.86916
1384.68894,0.87111
1382.76041,0.87121
1380.83187,0.87016
1378.90333,0.86863
1376.97480,0.86723
1375.04626,0.86499
1373.11773,0.86182
1371.18919,0.86101
1369.26065,0.86402
1367.33212,0.86920
1365.40358,0.87421
1363.47504,0.87969
1361.54651,0.88646
1359.61797,0.89218
1357.68944,0.89628
1355.76090,0.89952
1353.83236,0.90182
1351.90383,0.90301
1349.97529,0.90326
1348.04676,0.90304
1346.11822,0.90287
1344.18968,0.90262
1342.26115,0.90192
1340.33261,0.90070
1338.40407,0.89997
1336.47554,0.90050
1334.54700,0.90143
1332.61847,0.90212
1330.68993,0.90240
1328.76139,0.90257
1326.83286,0.90267
1324.90432,0.90186
1322.97579,0.89825
1321.04725,0.89031
1319.11871,0.88039
1317.19018,0.87495
1315.26164,0.87530
1313.33311,0.87645
1311.40457,0.87529
1309.47603,0.87090
1307.54750,0.86065
1305.61896,0.84509
1303.69042,0.83412
1301.76189,0.83545
1299.83335,0.84020
1297.90482,0.83243
1295.97628,0.80536
1294.04774,0.75842
1292.11921,0.69297
1290.19067,0.62244
1288.26214,0.57089
1286.33360,0.55281
1284.40506,0.56401
1282.47653,0.59323
1280.54799,0.63003
1278.61945,0.66503
1276.69092,0.69224
1274.76238,0.71008
1272.83385,0.72050
1270.90531,0.72800
1268.97677,0.73646
1267.04824,0.74658
1265.11970,0.75763
1263.19117,0.76974
1261.26263,0.78407
1259.33409,0.80022
1257.40556,0.81524
1255.47702,0.82664
1253.54849,0.83304
1251.61995,0.83297
1249.69141,0.82500
1247.76288,0.81096
1245.83434,0.79899
1243.90580,0.79746
1241.97727,0.80414
1240.04873,0.80867
1238.12020,0.80568
1236.19166,0.79954
1234.26312,0.79668
1232.33459,0.79459
1230.40605,0.78331
1228.47752,0.75950
1226.54898,0.73395
1224.62044,0.72419
1222.69191,0.73859
1220.76337,0.76846
1218.83483,0.79923
1216.90630,0.82338
1214.97776,0.84069
1213.04923,0.85281
1211.12069,0.86112
1209.19215,0.86679
1207.26362,0.87082
1205.33508,0.87356
1203.40655,0.87507
1201.47801,0.87557
1199.54947,0.87494
1197.62094,0.87258
1195.69240,0.86841
1193.76387,0.86317
1191.83533,0.85751
1189.90679,0.85185
1187.97826,0.84807
1186.04972,0.84907
1184.12118,0.85493
1182.19265,0.86217
1180.26411,0.86777
1178.33558,0.87068
1176.40704,0.87025
1174.47850,0.86532
1172.54997,0.85515
1170.62143,0.84086
1168.69290,0.82559
1166.76436,0.81283
1164.83582,0.80484
1162.90729,0.80344
1160.97875,0.80981
1159.05021,0.82189
1157.12168,0.83507
1155.19314,0.84625
1153.26461,0.85516
1151.33607,0.86186
1149.40753,0.86442
1147.47900,0.85945
1145.55046,0.84482
1143.62193,0.82349
1141.69339,0.80205
1139.76485,0.78286
1137.83632,0.76430
1135.90778,0.74907
1133.97924,0.73734
1132.05071,0.71291
1130.12217,0.65583
1128.19364,0.57070
1126.26510,0.48993
1124.33656,0.44795
1122.40803,0.45832
1120.47949,0.50894
1118.55096,0.57218
1116.62242,0.62748
1114.69388,0.67190
1112.76535,0.70541
1110.83681,0.72212
1108.90828,0.71866
1106.97974,0.69975
1105.05120,0.67574
1103.12267,0.65595
1101.19413,0.64382
1099.26559,0.64282
1097.33706,0.65947
1095.40852,0.69072
1093.47999,0.72097
1091.55145,0.74118
1089.62291,0.75749
1087.69438,0.77629
1085.76584,0.79395
1083.83731,0.80389
1081.90877,0.80374
1079.98023,0.79093
1078.05170,0.76015
1076.12316,0.71560
1074.19462,0.67732
1072.26609,0.66268
1070.33755,0.67087
1068.40902,0.69235
1066.48048,0.72004
1064.55194,0.74814
1062.62341,0.77098
1060.69487,0.78560
1058.76634,0.79344
1056.83780,0.79907
1054.90926,0.80622
1052.98073,0.81462
1051.05219,0.82138
1049.12366,0.82402
1047.19512,0.82237
1045.26658,0.81906
1043.33805,0.81708
1041.40951,0.81651
1039.48097,0.81585
1037.55244,0.81579
1035.62390,0.81865
1033.69537,0.82370
1031.76683,0.82475
1029.83829,0.81511
1027.90976,0.79636
1025.98122,0.77484
1024.05269,0.74654
1022.12415,0.70312
1020.19561,0.65696
1018.26708,0.63481
1016.33854,0.64274
1014.41000,0.65698
1012.48147,0.64924
1010.55293,0.61874
1008.62440,0.59676
1006.69586,0.60708
1004.76732,0.63752
1002.83879,0.66540
1000.91025,0.68542
998.98172,0.70372
997.05318,0.72561
995.12464,0.75134
993.19611,0.77549
991.26757,0.79319
989.33904,0.80513
987.41050,0.81407
985.48196,0.82108
983.55343,0.82594
981.62489,0.82890
979.69635,0.83115
977.76782,0.83352
975.83928,0.83559
973.91075,0.83666
971.98221,0.83669
970.05367,0.83527
968.12514,0.83097
966.19660,0.82143
964.26807,0.80140
962.33953,0.76514
960.41099,0.72328
958.48246,0.70641
956.55392,0.72843
954.62538,0.76810
952.69685,0.80226
950.76831,0.82626
948.83978,0.84245
946.91124,0.85284
944.98270,0.85929
943.05417,0.86251
941.12563,0.86180
939.19710,0.85735
937.26856,0.85296
935.34002,0.85264
933.41149,0.85471
931.48295,0.85239
929.55442,0.83836
927.62588,0.80921
925.69734,0.77159
923.76881,0.74300
921.84027,0.73841
919.91173,0.75559
917.98320,0.77903
916.05466,0.79592
914.12613,0.80549
912.19759,0.81405
910.26905,0.82379
908.34052,0.83135
906.41198,0.83408
904.48345,0.83142
902.55491,0.82234
900.62637,0.80462
898.69784,0.77680
896.76930,0.74122
894.84076,0.70705
892.91223,0.68904
890.98369,0.69746
889.05516,0.72733
887.12662,0.76133
885.19808,0.78278
883.26955,0.78214
881.34101,0.75573
879.41248,0.71081
877.48394,0.67402
875.55540,0.67453
873.62687,0.71124
871.69833,0.75752
869.76980,0.79406
867.84126,0.81812
865.91272,0.83247
863.98419,0.83982
862.05565,0.84360
860.12711,0.84679
858.19858,0.84966
856.27004,0.85144
854.34151,0.85335
852.41297,0.85697
850.48443,0.86173
848.55590,0.86626
846.62736,0.87039
844.69883,0.87452
842.77029,0.87872
840.84175,0.88269
838.91322,0.88602
836.98468,0.88816
835.05614,0.88836
833.12761,0.88605
831.19907,0.88125
829.27054,0.87368
827.34200,0.86280
825.41346,0.84868
823.48493,0.82882
821.55639,0.79727
819.62786,0.75688
817.69932,0.72808
815.77078,0.73108
813.84225,0.75673
811.91371,0.77347
809.98517,0.77402
808.05664,0.78348
806.12810,0.81176
804.19957,0.84131
802.27103,0.85902
800.34249,0.86554
798.41396,0.86622
796.48542,0.86791
794.55689,0.87402
792.62835,0.88098
790.69981,0.88329
788.77128,0.87814
786.84274,0.86500
784.91421,0.84989
782.98567,0.84194
781.05713,0.83441
779.12860,0.81486
777.20006,0.79481
775.27152,0.79533
773.34299,0.81540
771.41445,0.83565
769.48592,0.83701
767.55738,0.81587
765.62884,0.79234
763.70031,0.78845
761.77177,0.79740
759.84324,0.79526
757.91470,0.77718
755.98616,0.76029
754.05763,0.75320
752.12909,0.74460
750.20055,0.72591
748.27202,0.70300
746.34348,0.68089
744.41495,0.65823
742.48641,0.63988
740.55787,0.63737
738.62934,0.65491
736.70080,0.68581
734.77227,0.72106
732.84373,0.75507
730.91519,0.78562
728.98666,0.81182
727.05812,0.83249
725.12959,0.84583
723.20105,0.84879
721.27251,0.83456
719.34398,0.79692
717.41544,0.74598
715.48690,0.70078
713.55837,0.66485
711.62983,0.62884
709.70130,0.59392
707.77276,0.57505
705.84422,0.57329
703.91569,0.56801
701.98715,0.55187
700.05862,0.53661
698.13008,0.52574
696.20154,0.51744
694.27301,0.51576
692.34447,0.52418
690.41593,0.54331
688.48740,0.57449
686.55886,0.61006
684.63033,0.63050
682.70179,0.63551
680.77325,0.64896
678.84472,0.68084
676.91618,0.71740
674.98765,0.74682
673.05911,0.76784
671.13057,0.78220
669.20204,0.79189
667.27350,0.79480
665.34497,0.79456
663.41643,0.79651
661.48789,0.79639
659.55936,0.78344
657.63082,0.75390
655.70228,0.71913
653.77375,0.69707
651.84521,0.70365
649.91668,0.73830
647.98814,0.77907
646.05960,0.80793
644.13107,0.82532
642.20253,0.83569
640.27400,0.83918
638.34546,0.83142
636.41692,0.80863
634.48839,0.78376
632.55985,0.78147
630.63131,0.80289
628.70278,0.82752
626.77424,0.84435
624.84571,0.85459
622.91717,0.85997
620.98863,0.85792
619.06010,0.84567
617.13156,0.83382
615.20303,0.83796
613.27449,0.85226
611.34595,0.86301
609.41742,0.86863
607.48888,0.87216
605.56035,0.87455
603.63181,0.87595
601.70327,0.87653
599.77474,0.87627
597.84620,0.87425
595.91766,0.86915
593.98913,0.86013
592.06059,0.84947
590.13206,0.84410
588.20352,0.84706
586.27498,0.85328
584.34645,0.85617
582.41791,0.85409
580.48938,0.85157
578.56084,0.85421
576.63230,0.86266
574.70377,0.87273
572.77523,0.88040
570.84669,0.88543
568.91816,0.88847
566.98962,0.88967
565.06109,0.89006
563.13255,0.89106
561.20401,0.89256
559.27548,0.89251
557.34694,0.88698
555.41841,0.86706
553.48987,0.81687
551.56133,0.73446
549.63280,0.66252
547.70426,0.65820
545.77573,0.71776
543.84719,0.78464
541.91865,0.82514
539.99012,0.83756
538.06158,0.81853
536.13304,0.75238
534.20451,0.63537
532.27597,0.51411
530.34744,0.45930
528.41890,0.47792
526.49036,0.50205
524.56183,0.49517
522.63329,0.50224
520.70476,0.55213
518.77622,0.62988
516.84768,0.70200
514.91915,0.74503
512.99061,0.76172
511.06207,0.75693
509.13354,0.72842
507.20500,0.68433
505.27647,0.65983
503.34793,0.68263
501.41939,0.73500
499.49086,0.77540
497.56232,0.79208
495.63379,0.79105
493.70525,0.77383
491.77671,0.73549
489.84818,0.67141
487.91964,0.59593
485.99110,0.54193
484.06257,0.54120
482.13403,0.58543
480.20550,0.63907
478.27696,0.68449
476.34842,0.71808
474.41989,0.74375
472.49135,0.76719
470.56282,0.78294
468.63428,0.78867
466.70574,0.79287
464.77721,0.79816
462.84867,0.80089
460.92014,0.79942
458.99160,0.79681
457.06306,0.79742
455.13453,0.79903
453.20599,0.79713
451.27745,0.79120
449.34892,0.78122
447.42038,0.76419
445.49185,0.74318
443.56331,0.73362
441.63477,0.74510
439.70624,0.76527
437.77770,0.78083
435.84917,0.78822
433.92063,0.78567
431.99209,0.77621
430.06356,0.76633
428.13502,0.76251
426.20648,0.76673
424.27795,0.77719
422.34941,0.78922
420.42088,0.79796
418.49234,0.79983
416.56380,0.80060
414.63527,0.80684
412.70673,0.81719
410.77820,0.82787
408.84966,0.83521
406.92112,0.83889
404.99259,0.83948
403.06405,0.83644
401.13552,0.82962
399.20698,0.81997
