3997.85540,0.95154
3995.92686,0.95140
3993.99833,0.95120
3992.06979,0.95111
3990.14125,0.95112
3988.21272,0.95119
3986.28418,0.95123
3984.35565,0.95120
3982.42711,0.95117
3980.49857,0.95119
3978.57004,0.95115
3976.64150,0.95096
3974.71297,0.95081
3972.78443,0.95091
3970.85589,0.95105
3968.92736,0.95107
3966.99882,0.95107
3965.07029,0.95106
3963.14175,0.95103
3961.21321,0.95107
3959.28468,0.95122
3957.35614,0.95134
3955.42760,0.95133
3953.49907,0.95112
3951.57053,0.95076
3949.64200,0.95049
3947.71346,0.95062
3945.78492,0.95081
3943.85639,0.95074
3941.92785,0.95076
3939.99932,0.95098
3938.07078,0.95110
3936.14224,0.95097
3934.21371,0.95054
3932.28517,0.95004
3930.35663,0.94998
3928.42810,0.95016
3926.49956,0.95011
3924.57103,0.95001
3922.64249,0.95027
3920.71395,0.95051
3918.78542,0.95046
3916.85688,0.95054
3914.92835,0.95098
3912.99981,0.95133
3911.07127,0.95132
3909.14274,0.95086
3907.21420,0.94981
3905.28566,0.94837
3903.35713,0.94762
3901.42859,0.94803
3899.50006,0.94884
3897.57152,0.94963
3895.64298,0.94992
3893.71445,0.94953
3891.78591,0.94923
3889.85738,0.94959
3887.92884,0.94964
3886.00030,0.94907
3884.07177,0.94862
3882.14323,0.94857
3880.21470,0.94903
3878.28616,0.94974
3876.35762,0.94974
3874.42909,0.94899
3872.50055,0.94816
3870.57201,0.94787
3868.64348,0.94838
3866.71494,0.94864
3864.78641,0.94834
3862.85787,0.94866
3860.92933,0.94959
3859.00080,0.94976
3857.07226,0.94886
3855.14373,0.94719
3853.21519,0.94641
3851.28665,0.94824
3849.35812,0.94994
3847.42958,0.95066
3845.50104,0.95056
3843.57251,0.94989
3841.64397,0.94875
3839.71544,0.94741
3837.78690,0.94740
3835.85836,0.94874
3833.92983,0.94972
3832.00129,0.95025
3830.07276,0.95055
3828.14422,0.95046
3826.21568,0.95009
3824.28715,0.94956
3822.35861,0.94857
3820.43008,0.94790
3818.50154,0.94841
3816.57300,0.94934
3814.64447,0.95068
3812.71593,0.95164
3810.78739,0.95174
3808.85886,0.95106
3806.93032,0.95026
3805.00179,0.94987
3803.07325,0.94920
3801.14471,0.94880
3799.21618,0.94951
3797.28764,0.95037
3795.35911,0.95143
3793.43057,0.95243
3791.50203,0.95289
3789.57350,0.95283
3787.64496,0.95245
3785.71642,0.95222
3783.78789,0.95250
3781.85935,0.95264
3779.93082,0.95239
3778.00228,0.95260
3776.07374,0.95320
3774.14521,0.95333
3772.21667,0.95270
3770.28814,0.95179
3768.35960,0.95153
3766.43106,0.95185
3764.50253,0.95224
3762.57399,0.95230
3760.64546,0.95180
3758.71692,0.95131
3756.78838,0.95131
3754.85985,0.95092
3752.93131,0.94930
3751.00277,0.94702
3749.07424,0.94677
3747.14570,0.94743
3745.21717,0.94788
3743.28863,0.94857
3741.36009,0.94890
3739.43156,0.94842
3737.50302,0.94699
3735.57449,0.94517
3733.64595,0.94513
3731.71741,0.94646
3729.78888,0.94722
3727.86034,0.94714
3725.93180,0.94696
3724.00327,0.94743
3722.07473,0.94841
3720.14620,0.94966
3718.21766,0.95099
3716.28912,0.95186
3714.36059,0.95160
3712.43205,0.94986
3710.50352,0.94846
3708.57498,0.94924
3706.64644,0.95013
3704.71791,0.95022
3702.78937,0.94995
3700.86084,0.95023
3698.93230,0.95086
3697.00376,0.95110
3695.07523,0.95079
3693.14669,0.94987
3691.21815,0.94860
3689.28962,0.94845
3687.36108,0.94996
3685.43255,0.95130
3683.50401,0.95199
3681.57547,0.95185
3679.64694,0.95081
3677.71840,0.94921
3675.78987,0.94812
3673.86133,0.94872
3671.93279,0.94908
3670.00426,0.94931
3668.07572,0.95080
3666.14718,0.95222
3664.21865,0.95284
3662.29011,0.95289
3660.36158,0.95254
3658.43304,0.95191
3656.50450,0.95133
3654.57597,0.95115
3652.64743,0.95053
3650.71890,0.94847
3648.79036,0.94682
3646.86182,0.94875
3644.93329,0.95062
3643.00475,0.95138
3641.07622,0.95150
3639.14768,0.95129
3637.21914,0.95089
3635.29061,0.95042
3633.36207,0.94981
3631.43353,0.94873
3629.50500,0.94729
3627.57646,0.94750
3625.64793,0.94890
3623.71939,0.94961
3621.79085,0.94942
3619.86232,0.94883
3617.93378,0.94892
3616.00525,0.94937
3614.07671,0.94955
3612.14817,0.94968
3610.21964,0.94950
3608.29110,0.94911
3606.36256,0.94926
3604.43403,0.94951
3602.50549,0.94912
3600.57696,0.94845
3598.64842,0.94814
3596.71988,0.94787
3594.79135,0.94760
3592.86281,0.94787
3590.93428,0.94802
3589.00574,0.94734
3587.07720,0.94665
3585.14867,0.94702
3583.22013,0.94733
3581.29160,0.94706
3579.36306,0.94642
3577.43452,0.94559
3575.50599,0.94467
3573.57745,0.94372
3571.64891,0.94253
3569.72038,0.94068
3567.79184,0.93822
3565.86331,0.93693
3563.93477,0.93736
3562.00623,0.93791
3560.07770,0.93827
3558.14916,0.93858
3556.22063,0.93882
3554.29209,0.93903
3552.36355,0.93941
3550.43502,0.93996
3548.50648,0.94028
3546.57794,0.94050
3544.64941,0.94137
3542.72087,0.94266
3540.79234,0.94355
3538.86380,0.94393
3536.93526,0.94421
3535.00673,0.94472
3533.07819,0.94518
3531.14966,0.94520
3529.22112,0.94488
3527.29258,0.94467
3525.36405,0.94476
3523.43551,0.94516
3521.50697,0.94580
3519.57844,0.94635
3517.64990,0.94661
3515.72137,0.94672
3513.79283,0.94676
3511.86429,0.94667
3509.93576,0.94652
3508.00722,0.94649
3506.07869,0.94641
3504.15015,0.94617
3502.22161,0.94615
3500.29308,0.94633
3498.36454,0.94641
3496.43601,0.94650
3494.50747,0.94670
3492.57893,0.94676
3490.65040,0.94659
3488.72186,0.94640
3486.79332,0.94638
3484.86479,0.94637
3482.93625,0.94616
3481.00772,0.94601
3479.07918,0.94618
3477.15064,0.94640
3475.22211,0.94644
3473.29357,0.94642
3471.36504,0.94641
3469.43650,0.94632
3467.50796,0.94616
3465.57943,0.94609
3463.65089,0.94603
3461.72235,0.94598
3459.79382,0.94608
3457.86528,0.94620
3455.93675,0.94619
3454.00821,0.94620
3452.07967,0.94627
3450.15114,0.94612
3448.22260,0.94573
3446.29407,0.94554
3444.36553,0.94561
3442.43699,0.94571
3440.50846,0.94590
3438.57992,0.94605
3436.65139,0.94602
3434.72285,0.94598
3432.79431,0.94604
3430.86578,0.94614
3428.93724,0.94616
3427.00870,0.94604
3425.08017,0.94584
3423.15163,0.94563
3421.22310,0.94554
3419.29456,0.94564
3417.36602,0.94576
3415.43749,0.94573
3413.50895,0.94571
3411.58042,0.94577
3409.65188,0.94576
3407.72334,0.94564
3405.79481,0.94549
3403.86627,0.94538
3401.93773,0.94537
3400.00920,0.94525
3398.08066,0.94502
3396.15213,0.94493
3394.22359,0.94495
3392.29505,0.94495
3390.36652,0.94502
3388.43798,0.94507
3386.50945,0.94498
3384.58091,0.94488
3382.65237,0.94495
3380.72384,0.94508
3378.79530,0.94514
3376.86677,0.94505
3374.93823,0.94487
3373.00969,0.94476
3371.08116,0.94477
3369.15262,0.94477
3367.22408,0.94471
3365.29555,0.94462
3363.36701,0.94458
3361.43848,0.94457
3359.50994,0.94453
3357.58140,0.94448
3355.65287,0.94449
3353.72433,0.94453
3351.79580,0.94454
3349.86726,0.94454
3347.93872,0.94452
3346.01019,0.94449
3344.08165,0.94452
3342.15311,0.94456
3340.22458,0.94453
3338.29604,0.94446
3336.36751,0.94437
3334.43897,0.94433
3332.51043,0.94435
3330.58190,0.94429
3328.65336,0.94411
3326.72483,0.94399
3324.79629,0.94401
3322.86775,0.94401
3320.93922,0.94394
3319.01068,0.94389
3317.08215,0.94383
3315.15361,0.94367
3313.22507,0.94350
3311.29654,0.94341
3309.36800,0.94341
3307.43946,0.94353
3305.51093,0.94357
3303.58239,0.94340
3301.65386,0.94319
3299.72532,0.94308
3297.79678,0.94304
3295.86825,0.94301
3293.93971,0.94296
3292.01118,0.94293
3290.08264,0.94300
3288.15410,0.94311
3286.22557,0.94318
3284.29703,0.94319
3282.36849,0.94314
3280.43996,0.94305
3278.51142,0.94306
3276.58289,0.94316
3274.65435,0.94322
3272.72581,0.94330
3270.79728,0.94343
3268.86874,0.94353
3266.94021,0.94355
3265.01167,0.94359
3263.08313,0.94363
3261.15460,0.94361
3259.22606,0.94362
3257.29753,0.94374
3255.36899,0.94394
3253.44045,0.94409
3251.51192,0.94416
3249.58338,0.94418
3247.65484,0.94417
3245.72631,0.94411
3243.79777,0.94407
3241.86924,0.94409
3239.94070,0.94417
3238.01216,0.94427
3236.08363,0.94432
3234.15509,0.94425
3232.22656,0.94410
3230.29802,0.94396
3228.36948,0.94387
3226.44095,0.94383
3224.51241,0.94380
3222.58387,0.94368
3220.65534,0.94350
3218.72680,0.94337
3216.79827,0.94329
3214.86973,0.94323
3212.94119,0.94319
3211.01266,0.94318
3209.08412,0.94325
3207.15559,0.94333
3205.22705,0.94326
3203.29851,0.94312
3201.36998,0.94300
3199.44144,0.94290
3197.51290,0.94292
3195.58437,0.94313
3193.65583,0.94344
3191.72730,0.94370
3189.79876,0.94385
3187.87022,0.94389
3185.94169,0.94394
3184.01315,0.94409
3182.08462,0.94426
3180.15608,0.94430
3178.22754,0.94431
3176.29901,0.94444
3174.37047,0.94462
3172.44194,0.94477
3170.51340,0.94494
3168.58486,0.94513
3166.65633,0.94532
3164.72779,0.94553
3162.79925,0.94581
3160.87072,0.94617
3158.94218,0.94653
3157.01365,0.94690
3155.08511,0.94736
3153.15657,0.94777
3151.22804,0.94794
3149.29950,0.94794
3147.37097,0.94802
3145.44243,0.94817
3143.51389,0.94835
3141.58536,0.94858
3139.65682,0.94881
3137.72828,0.94889
3135.79975,0.94879
3133.87121,0.94869
3131.94268,0.94876
3130.01414,0.94893
3128.08560,0.94892
3126.15707,0.94875
3124.22853,0.94867
3122.30000,0.94881
3120.37146,0.94904
3118.44292,0.94914
3116.51439,0.94910
3114.58585,0.94904
3112.65732,0.94906
3110.72878,0.94918
3108.80024,0.94925
3106.87171,0.94918
3104.94317,0.94908
3103.01463,0.94903
3101.08610,0.94908
3099.15756,0.94913
3097.22903,0.94904
3095.30049,0.94890
3093.37195,0.94887
3091.44342,0.94885
3089.51488,0.94865
3087.58635,0.94828
3085.65781,0.94793
3083.72927,0.94769
3081.80074,0.94749
3079.87220,0.94729
3077.94366,0.94715
3076.01513,0.94706
3074.08659,0.94699
3072.15806,0.94696
3070.22952,0.94701
3068.30098,0.94704
3066.37245,0.94693
3064.44391,0.94668
3062.51538,0.94636
3060.58684,0.94610
3058.65830,0.94603
3056.72977,0.94603
3054.80123,0.94610
3052.87270,0.94627
3050.94416,0.94633
3049.01562,0.94623
3047.08709,0.94616
3045.15855,0.94610
3043.23001,0.94587
3041.30148,0.94543
3039.37294,0.94490
3037.44441,0.94432
3035.51587,0.94368
3033.58733,0.94289
3031.65880,0.94197
3029.73026,0.94098
3027.80173,0.93984
3025.87319,0.93841
3023.94465,0.93666
3022.01612,0.93467
3020.08758,0.93245
3018.15904,0.92995
3016.23051,0.92714
3014.30197,0.92391
3012.37344,0.92004
3010.44490,0.91543
3008.51636,0.91031
3006.58783,0.90528
3004.65929,0.90077
3002.73076,0.89679
3000.80222,0.89351
2998.87368,0.89107
2996.94515,0.88906
2995.01661,0.88711
2993.08808,0.88517
2991.15954,0.88275
2989.23100,0.87951
2987.30247,0.87566
2985.37393,0.87102
2983.44539,0.86535
2981.51686,0.85932
2979.58832,0.85353
2977.65979,0.84752
2975.73125,0.84066
2973.80271,0.83255
2971.87418,0.82342
2969.94564,0.81422
2968.01711,0.80539
2966.08857,0.79671
2964.16003,0.78819
2962.23150,0.77989
2960.30296,0.77195
2958.37442,0.76491
2956.44589,0.75927
2954.51735,0.75537
2952.58882,0.75328
2950.66028,0.75313
2948.73174,0.75521
2946.80321,0.75934
2944.87467,0.76469
2942.94614,0.77023
2941.01760,0.77531
2939.08906,0.77964
2937.16053,0.78302
2935.23199,0.78539
2933.30346,0.78702
2931.37492,0.78823
2929.44638,0.78895
2927.51785,0.78928
2925.58931,0.78988
2923.66077,0.79125
2921.73224,0.79348
2919.80370,0.79647
2917.87517,0.79963
2915.94663,0.80218
2914.01809,0.80371
2912.08956,0.80418
2910.16102,0.80382
2908.23249,0.80309
2906.30395,0.80267
2904.37541,0.80296
2902.44688,0.80410
2900.51834,0.80625
2898.58980,0.80950
2896.66127,0.81345
2894.73273,0.81732
2892.80420,0.82073
2890.87566,0.82379
2888.94712,0.82652
2887.01859,0.82867
2885.09005,0.83005
2883.16152,0.83073
2881.23298,0.83068
2879.30444,0.82969
2877.37591,0.82777
2875.44737,0.82534
2873.51883,0.82282
2871.59030,0.82066
2869.66176,0.81949
2867.73323,0.81983
2865.80469,0.82172
2863.87615,0.82497
2861.94762,0.82940
2860.01908,0.83469
2858.09055,0.84046
2856.16201,0.84646
2854.23347,0.85261
2852.30494,0.85874
2850.37640,0.86473
2848.44787,0.87033
2846.51933,0.87506
2844.59079,0.87871
2842.66226,0.88155
2840.73372,0.88377
2838.80518,0.88545
2836.87665,0.88691
2834.94811,0.88889
2833.01958,0.89186
2831.09104,0.89572
2829.16250,0.90000
2827.23397,0.90412
2825.30543,0.90767
2823.37690,0.91052
2821.44836,0.91273
2819.51982,0.91445
2817.59129,0.91577
2815.66275,0.91679
2813.73421,0.91758
2811.80568,0.91832
2809.87714,0.91893
2807.94861,0.91930
2806.02007,0.91954
2804.09153,0.91982
2802.16300,0.92023
2800.23446,0.92082
2798.30593,0.92138
2796.37739,0.92169
2794.44885,0.92184
2792.52032,0.92205
2790.59178,0.92230
2788.66325,0.92228
2786.73471,0.92201
2784.80617,0.92188
2782.87764,0.92205
2780.94910,0.92238
2779.02056,0.92281
2777.09203,0.92337
2775.16349,0.92385
2773.23496,0.92406
2771.30642,0.92413
2769.37788,0.92423
2767.44935,0.92439
2765.52081,0.92472
2763.59228,0.92526
2761.66374,0.92585
2759.73520,0.92634
2757.80667,0.92664
2755.87813,0.92668
2753.94959,0.92647
2752.02106,0.92622
2750.09252,0.92610
2748.16399,0.92611
2746.23545,0.92621
2744.30691,0.92648
2742.37838,0.92695
2740.44984,0.92754
2738.52131,0.92805
2736.59277,0.92831
2734.66423,0.92830
2732.73570,0.92812
2730.80716,0.92789
2728.87863,0.92762
2726.95009,0.92720
2725.02155,0.92649
2723.09302,0.92551
2721.16448,0.92447
2719.23594,0.92347
2717.30741,0.92256
2715.37887,0.92176
2713.45034,0.92118
2711.52180,0.92095
2709.59326,0.92112
2707.66473,0.92164
2705.73619,0.92243
2703.80766,0.92345
2701.87912,0.92469
2699.95058,0.92604
2698.02205,0.92733
2696.09351,0.92848
2694.16497,0.92951
2692.23644,0.93043
2690.30790,0.93120
2688.37937,0.93186
2686.45083,0.93243
2684.52229,0.93293
2682.59376,0.93341
2680.66522,0.93379
2678.73669,0.93406
2676.80815,0.93429
2674.87961,0.93450
2672.95108,0.93470
2671.02254,0.93485
2669.09401,0.93500
2667.16547,0.93514
2665.23693,0.93522
2663.30840,0.93529
2661.37986,0.93541
2659.45132,0.93560
2657.52279,0.93584
2655.59425,0.93609
2653.66572,0.93637
2651.73718,0.93670
2649.80864,0.93705
2647.88011,0.93735
2645.95157,0.93759
2644.02304,0.93791
2642.09450,0.93832
2640.16596,0.93873
2638.23743,0.93909
2636.30889,0.93949
2634.38035,0.93989
2632.45182,0.94020
2630.52328,0.94055
2628.59475,0.94100
2626.66621,0.94141
2624.73767,0.94169
2622.80914,0.94194
2620.88060,0.94228
2618.95207,0.94269
2617.02353,0.94310
2615.09499,0.94349
2613.16646,0.94387
2611.23792,0.94428
2609.30939,0.94462
2607.38085,0.94477
2605.45231,0.94481
2603.52378,0.94482
2601.59524,0.94485
2599.66670,0.94493
2597.73817,0.94505
2595.80963,0.94522
2593.88110,0.94543
2591.95256,0.94557
2590.02402,0.94562
2588.09549,0.94558
2586.16695,0.94545
2584.23842,0.94535
2582.30988,0.94535
2580.38134,0.94543
2578.45281,0.94561
2576.52427,0.94580
2574.59573,0.94582
2572.66720,0.94573
2570.73866,0.94571
2568.81013,0.94576
2566.88159,0.94583
2564.95305,0.94591
2563.02452,0.94595
2561.09598,0.94598
2559.16745,0.94602
2557.23891,0.94609
2555.31037,0.94619
2553.38184,0.94637
2551.45330,0.94658
2549.52476,0.94674
2547.59623,0.94689
2545.66769,0.94711
2543.73916,0.94732
2541.81062,0.94749
2539.88208,0.94770
2537.95355,0.94802
2536.02501,0.94826
2534.09648,0.94830
2532.16794,0.94832
2530.23940,0.94841
2528.31087,0.94839
2526.38233,0.94829
2524.45380,0.94830
2522.52526,0.94848
2520.59672,0.94864
2518.66819,0.94863
2516.73965,0.94859
2514.81111,0.94864
2512.88258,0.94867
2510.95404,0.94858
2509.02551,0.94848
2507.09697,0.94844
2505.16843,0.94841
2503.23990,0.94843
2501.31136,0.94857
2499.38283,0.94873
2497.45429,0.94883
2495.52575,0.94891
2493.59722,0.94902
2491.66868,0.94909
2489.74014,0.94914
2487.81161,0.94927
2485.88307,0.94943
2483.95454,0.94948
2482.02600,0.94951
2480.09746,0.94958
2478.16893,0.94958
2476.24039,0.94947
2474.31186,0.94935
2472.38332,0.94929
2470.45478,0.94927
2468.52625,0.94924
2466.59771,0.94907
2464.66918,0.94876
2462.74064,0.94855
2460.81210,0.94860
2458.88357,0.94873
2456.95503,0.94876
2455.02649,0.94883
2453.09796,0.94901
2451.16942,0.94925
2449.24089,0.94953
2447.31235,0.94980
2445.38381,0.95008
2443.45528,0.95042
2441.52674,0.95071
2439.59821,0.95086
2437.66967,0.95094
2435.74113,0.95105
2433.81260,0.95118
2431.88406,0.95123
2429.95552,0.95120
2428.02699,0.95116
2426.09845,0.95116
2424.16992,0.95118
2422.24138,0.95121
2420.31284,0.95117
2418.38431,0.95105
2416.45577,0.95096
2414.52724,0.95097
2412.59870,0.95104
2410.67016,0.95102
2408.74163,0.95096
2406.81309,0.95096
2404.88456,0.95098
2402.95602,0.95095
2401.02748,0.95092
2399.09895,0.95087
2397.17041,0.95074
2395.24187,0.95059
2393.31334,0.95048
2391.38480,0.95039
2389.45627,0.95010
2387.52773,0.94925
2385.59919,0.94745
2383.67066,0.94456
2381.74212,0.94076
2379.81359,0.93617
2377.88505,0.93073
2375.95651,0.92436
2374.02798,0.91699
2372.09944,0.90878
2370.17090,0.90007
2368.24237,0.89126
2366.31383,0.88293
2364.38530,0.87624
2362.45676,0.87193
2360.52822,0.87012
2358.59969,0.87141
2356.67115,0.87664
2354.74262,0.88524
2352.81408,0.89574
2350.88554,0.90499
2348.95701,0.90916
2347.02847,0.90678
2345.09994,0.89947
2343.17140,0.89315
2341.24286,0.89168
2339.31433,0.89278
2337.38579,0.89418
2335.45725,0.89551
2333.52872,0.89680
2331.60018,0.89804
2329.67165,0.89976
2327.74311,0.90199
2325.81457,0.90439
2323.88604,0.90727
2321.95750,0.91111
2320.02897,0.91577
2318.10043,0.92041
2316.17189,0.92413
2314.24336,0.92660
2312.31482,0.92837
2310.38628,0.93031
2308.45775,0.93279
2306.52921,0.93553
2304.60068,0.93796
2302.67214,0.93962
2300.74360,0.94083
2298.81507,0.94213
2296.88653,0.94354
2294.95800,0.94483
2293.02946,0.94598
2291.10092,0.94714
2289.17239,0.94841
2287.24385,0.94976
2285.31532,0.95098
2283.38678,0.95188
2281.45824,0.95244
2279.52971,0.95268
2277.60117,0.95266
2275.67263,0.95262
2273.74410,0.95271
2271.81556,0.95284
2269.88703,0.95305
2267.95849,0.95342
2266.02995,0.95384
2264.10142,0.95413
2262.17288,0.95431
2260.24435,0.95447
2258.31581,0.95460
2256.38727,0.95479
2254.45874,0.95519
2252.53020,0.95558
2250.60166,0.95564
2248.67313,0.95556
2246.74459,0.95559
2244.81606,0.95565
2242.88752,0.95566
2240.95898,0.95569
2239.03045,0.95584
2237.10191,0.95606
2235.17338,0.95625
2233.24484,0.95650
2231.31630,0.95684
2229.38777,0.95708
2227.45923,0.95723
2225.53070,0.95747
2223.60216,0.95779
2221.67362,0.95799
2219.74509,0.95811
2217.81655,0.95841
2215.88801,0.95873
2213.95948,0.95884
2212.03094,0.95867
2210.10241,0.95847
2208.17387,0.95860
2206.24533,0.95894
2204.31680,0.95912
2202.38826,0.95923
2200.45973,0.95945
2198.53119,0.95954
2196.60265,0.95942
2194.67412,0.95932
2192.74558,0.95928
2190.81704,0.95924
2188.88851,0.95932
2186.95997,0.95943
2185.03144,0.95939
2183.10290,0.95923
2181.17436,0.95886
2179.24583,0.95842
2177.31729,0.95822
2175.38876,0.95811
2173.46022,0.95806
2171.53168,0.95828
2169.60315,0.95852
2167.67461,0.95854
2165.74607,0.95861
2163.81754,0.95897
2161.88900,0.96017
2159.96047,0.96280
2158.03193,0.96540
2156.10339,0.96608
2154.17486,0.96514
2152.24632,0.96401
2150.31779,0.96366
2148.38925,0.96395
2146.46071,0.96426
2144.53218,0.96428
2142.60364,0.96404
2140.67511,0.96370
2138.74657,0.96365
2136.81803,0.96408
2134.88950,0.96447
2132.96096,0.96437
2131.03242,0.96404
2129.10389,0.96368
2127.17535,0.96323
2125.24682,0.96288
2123.31828,0.96274
2121.38974,0.96245
2119.46121,0.96196
2117.53267,0.96161
2115.60414,0.96152
2113.67560,0.96154
2111.74706,0.96159
2109.81853,0.96162
2107.88999,0.96154
2105.96145,0.96133
2104.03292,0.96113
2102.10438,0.96104
2100.17585,0.96114
2098.24731,0.96150
2096.31877,0.96182
2094.39024,0.96173
2092.46170,0.96152
2090.53317,0.96153
2088.60463,0.96153
2086.67609,0.96124
2084.74756,0.96093
2082.81902,0.96081
2080.89049,0.96079
2078.96195,0.96083
2077.03341,0.96102
2075.10488,0.96127
2073.17634,0.96140
2071.24780,0.96129
2069.31927,0.96112
2067.39073,0.96097
2065.46220,0.96082
2063.53366,0.96087
2061.60512,0.96114
2059.67659,0.96127
2057.74805,0.96120
2055.81952,0.96133
2053.89098,0.96161
2051.96244,0.96180
2050.03391,0.96231
2048.10537,0.96317
2046.17683,0.96387
2044.24830,0.96457
2042.31976,0.96537
2040.39123,0.96618
2038.46269,0.96702
2036.53415,0.96768
2034.60562,0.96810
2032.67708,0.96833
2030.74855,0.96837
2028.82001,0.96831
2026.89147,0.96832
2024.96294,0.96866
2023.03440,0.96914
2021.10587,0.96925
2019.17733,0.96912
2017.24879,0.96916
2015.32026,0.96916
2013.39172,0.96884
2011.46318,0.96849
2009.53465,0.96840
2007.60611,0.96852
2005.67758,0.96843
2003.74904,0.96787
2001.82050,0.96707
1999.89197,0.96622
1997.96343,0.96574
1996.03490,0.96598
1994.10636,0.96640
1992.17782,0.96647
1990.24929,0.96619
1988.32075,0.96578
1986.39221,0.96544
1984.46368,0.96525
1982.53514,0.96506
1980.60661,0.96491
1978.67807,0.96535
1976.74953,0.96636
1974.82100,0.96721
1972.89246,0.96746
1970.96393,0.96729
1969.03539,0.96704
1967.10685,0.96676
1965.17832,0.96646
1963.24978,0.96640
1961.32125,0.96668
1959.39271,0.96692
1957.46417,0.96668
1955.53564,0.96614
1953.60710,0.96571
1951.67856,0.96550
1949.75003,0.96535
1947.82149,0.96514
1945.89296,0.96497
1943.96442,0.96494
1942.03588,0.96482
1940.10735,0.96468
1938.17881,0.96463
1936.25028,0.96452
1934.32174,0.96436
1932.39320,0.96420
1930.46467,0.96392
1928.53613,0.96357
1926.60759,0.96328
1924.67906,0.96308
1922.75052,0.96311
1920.82199,0.96340
1918.89345,0.96352
1916.96491,0.96353
1915.03638,0.96374
1913.10784,0.96401
1911.17931,0.96408
1909.25077,0.96402
1907.32223,0.96408
1905.39370,0.96421
1903.46516,0.96432
1901.53663,0.96447
1899.60809,0.96451
1897.67955,0.96430
1895.75102,0.96402
1893.82248,0.96388
1891.89394,0.96362
1889.96541,0.96322
1888.03687,0.96328
1886.10834,0.96367
1884.17980,0.96381
1882.25126,0.96365
1880.32273,0.96346
1878.39419,0.96342
1876.46566,0.96344
1874.53712,0.96330
1872.60858,0.96281
1870.68005,0.96187
1868.75151,0.96110
1866.82297,0.96161
1864.89444,0.96263
1862.96590,0.96325
1861.03737,0.96343
1859.10883,0.96351
1857.18029,0.96368
1855.25176,0.96381
1853.32322,0.96380
1851.39469,0.96369
1849.46615,0.96345
1847.53761,0.96307
1845.60908,0.96266
1843.68054,0.96289
1841.75200,0.96375
1839.82347,0.96430
1837.89493,0.96433
1835.96640,0.96430
1834.03786,0.96430
1832.10932,0.96384
1830.18079,0.96300
1828.25225,0.96269
1826.32372,0.96288
1824.39518,0.96316
1822.46664,0.96354
1820.53811,0.96382
1818.60957,0.96392
1816.68104,0.96387
1814.75250,0.96352
1812.82396,0.96278
1810.89543,0.96212
1808.96689,0.96202
1807.03835,0.96213
1805.10982,0.96194
1803.18128,0.96137
1801.25275,0.96067
1799.32421,0.96033
1797.39567,0.96020
1795.46714,0.95983
1793.53860,0.95916
1791.61007,0.95895
1789.68153,0.95970
1787.75299,0.96030
1785.82446,0.96031
1783.89592,0.96002
1781.96738,0.95970
1780.03885,0.95956
1778.11031,0.95961
1776.18178,0.95933
1774.25324,0.95840
1772.32470,0.95752
1770.39617,0.95787
1768.46763,0.95878
1766.53910,0.95943
1764.61056,0.95952
1762.68202,0.95910
1760.75349,0.95884
1758.82495,0.95888
1756.89642,0.95892
1754.96788,0.95890
1753.03934,0.95838
1751.11081,0.95705
1749.18227,0.95579
1747.25373,0.95569
1745.32520,0.95614
1743.39666,0.95649
1741.46813,0.95660
1739.53959,0.95661
1737.61105,0.95648
1735.68252,0.95596
1733.75398,0.95559
1731.82545,0.95655
1729.89691,0.95794
1727.96837,0.95907
1726.03984,0.95957
1724.11130,0.95949
1722.18276,0.95915
1720.25423,0.95836
1718.32569,0.95665
1716.39716,0.95542
1714.46862,0.95657
1712.54008,0.95793
1710.61155,0.95846
1708.68301,0.95815
1706.75448,0.95724
1704.82594,0.95660
1702.89740,0.95641
1700.96887,0.95575
1699.04033,0.95482
1697.11180,0.95523
1695.18326,0.95704
1693.25472,0.95833
1691.32619,0.95844
1689.39765,0.95792
1687.46911,0.95725
1685.54058,0.95635
1683.61204,0.95590
1681.68351,0.95682
1679.75497,0.95774
1677.82643,0.95806
1675.89790,0.95774
1673.96936,0.95714
1672.04083,0.95646
1670.11229,0.95592
1668.18375,0.95658
1666.25522,0.95725
1664.32668,0.95688
1662.39814,0.95613
1660.46961,0.95592
1658.54107,0.95554
1656.61254,0.95434
1654.68400,0.95217
1652.75546,0.95008
1650.82693,0.94980
1648.89839,0.94874
1646.96986,0.94638
1645.04132,0.94498
1643.11278,0.94376
1641.18425,0.94109
1639.25571,0.93687
1637.32718,0.93046
1635.39864,0.92183
1633.47010,0.91742
1631.54157,0.91639
1629.61303,0.91649
1627.68449,0.91814
1625.75596,0.92027
1623.82742,0.92159
1621.89889,0.92189
1619.97035,0.92056
1618.04181,0.91623
1616.11328,0.90848
1614.18474,0.90275
1612.25621,0.89907
1610.32767,0.89551
1608.39913,0.89313
1606.47060,0.89156
1604.54206,0.88732
1602.61352,0.87971
1600.68499,0.87483
1598.75645,0.87737
1596.82792,0.88366
1594.89938,0.88590
1592.97084,0.87938
1591.04231,0.86701
1589.11377,0.85474
1587.18524,0.84590
1585.25670,0.83908
1583.32816,0.83303
1581.39963,0.83046
1579.47109,0.83390
1577.54256,0.84687
1575.61402,0.87250
1573.68548,0.89154
1571.75695,0.90042
1569.82841,0.90745
1567.89987,0.91154
1565.97134,0.90910
1564.04280,0.90192
1562.11427,0.89407
1560.18573,0.88742
1558.25719,0.88588
1556.32866,0.89366
1554.40012,0.90396
1552.47159,0.91356
1550.54305,0.92042
1548.61451,0.92449
1546.68598,0.92551
1544.75744,0.92373
1542.82890,0.92010
1540.90037,0.91570
1538.97183,0.91162
1537.04330,0.90837
1535.11476,0.90103
1533.18622,0.88555
1531.25769,0.87101
1529.32915,0.86411
1527.40062,0.86307
1525.47208,0.86848
1523.54354,0.87683
1521.61501,0.88566
1519.68647,0.89167
1517.75793,0.89071
1515.82940,0.88337
1513.90086,0.87082
1511.97233,0.85176
1510.04379,0.82612
1508.11525,0.78162
1506.18672,0.70739
1504.25818,0.67126
1502.32965,0.65095
1500.40111,0.62752
1498.47257,0.60467
1496.54404,0.59377
1494.61550,0.59447
1492.68697,0.59534
1490.75843,0.59134
1488.82989,0.58328
1486.90136,0.58064
1484.97282,0.58395
1483.04428,0.58923
1481.11575,0.59335
1479.18721,0.59394
1477.25868,0.59225
1475.33014,0.59055
1473.40160,0.58895
1471.47307,0.58559
1469.54453,0.58157
1467.61600,0.57812
1465.68746,0.57764
1463.75892,0.58425
1461.83039,0.59397
1459.90185,0.60289
1457.97331,0.61161
1456.04478,0.61520
1454.11624,0.61064
1452.18771,0.60237
1450.25917,0.59447
1448.33063,0.59486
1446.40210,0.61043
1444.47356,0.63597
1442.54503,0.66276
1440.61649,0.68356
1438.68795,0.69471
1436.75942,0.69549
1434.83088,0.68704
1432.90235,0.67754
1430.97381,0.67255
1429.04527,0.67711
1427.11674,0.68816
1425.18820,0.69902
1423.25966,0.70652
1421.33113,0.71004
1419.40259,0.71518
1417.47406,0.72832
1415.54552,0.74431
1413.61698,0.75877
1411.68845,0.77014
1409.75991,0.77605
1407.83138,0.77617
1405.90284,0.77193
1403.97430,0.76569
1402.04577,0.76096
1400.11723,0.75724
1398.18869,0.75088
1396.26016,0.73682
1394.33162,0.71654
1392.40309,0.70577
1390.47455,0.71043
1388.54601,0.72750
1386.61748,0.75328
1384.68894,0.77646
1382.76041,0.79181
1380.83187,0.79970
1378.90333,0.79971
1376.97480,0.79220
1375.04626,0.77558
1373.11773,0.75451
1371.18919,0.74261
1369.26065,0.74137
1367.33212,0.74614
1365.40358,0.75438
1363.47504,0.76823
1361.54651,0.79106
1359.61797,0.81766
1357.68944,0.84303
1355.76090,0.86525
1353.83236,0.88175
1351.90383,0.89222
1349.97529,0.89903
1348.04676,0.90408
1346.11822,0.90783
1344.18968,0.90985
1342.26115,0.90939
1340.33261,0.90503
1338.40407,0.89566
1336.47554,0.88239
1334.54700,0.86573
1332.61847,0.84582
1330.68993,0.82472
1328.76139,0.80549
1326.83286,0.78912
1324.90432,0.77439
1322.97579,0.76116
1321.04725,0.75124
1319.11871,0.74687
1317.19018,0.74862
1315.26164,0.75453
1313.33311,0.76255
1311.40457,0.77125
1309.47603,0.78001
1307.54750,0.78969
1305.61896,0.79993
1303.69042,0.80767
1301.76189,0.80931
1299.83335,0.80289
1297.90482,0.78849
1295.97628,0.76751
1294.04774,0.74195
1292.11921,0.71379
1290.19067,0.68535
1288.26214,0.65973
1286.33360,0.63921
1284.40506,0.62332
1282.47653,0.61023
1280.54799,0.59982
1278.61945,0.59342
1276.69092,0.59212
1274.76238,0.59718
1272.83385,0.61064
1270.90531,0.63328
1268.97677,0.66223
1267.04824,0.69259
1265.11970,0.71923
1263.19117,0.73815
1261.26263,0.74850
1259.33409,0.75119
1257.40556,0.74815
1255.47702,0.74278
1253.54849,0.73810
1251.61995,0.73450
1249.69141,0.73049
1247.76288,0.72606
1245.83434,0.72349
1243.90580,0.72416
1241.97727,0.72650
1240.04873,0.72806
1238.12020,0.72690
1236.19166,0.72056
1234.26312,0.70692
1232.33459,0.68732
1230.40605,0.66782
1228.47752,0.65661
1226.54898,0.66012
1224.62044,0.68043
1222.69191,0.71400
1220.76337,0.75302
1218.83483,0.78908
1216.90630,0.81659
1214.97776,0.83380
1213.04923,0.84086
1211.12069,0.83786
1209.19215,0.82603
1207.26362,0.80986
1205.33508,0.79622
1203.40655,0.79029
1201.47801,0.79181
1199.54947,0.79596
1197.62094,0.79795
1195.69240,0.79642
1193.76387,0.79259
1191.83533,0.78746
1189.90679,0.78027
1187.97826,0.76858
1186.04972,0.74994
1184.12118,0.72466
1182.19265,0.69650
1180.26411,0.67096
1178.33558,0.65266
1176.40704,0.64255
1174.47850,0.63710
1172.54997,0.63052
1170.62143,0.61974
1168.69290,0.60889
1166.76436,0.60683
1164.83582,0.61820
1162.90729,0.63857
1160.97875,0.65885
1159.05021,0.67175
1157.12168,0.67454
1155.19314,0.66844
1153.26461,0.65551
1151.33607,0.63564
1149.40753,0.60760
1147.47900,0.57439
1145.55046,0.54685
1143.62193,0.53788
1141.69339,0.55086
1139.76485,0.57636
1137.83632,0.60204
1135.90778,0.62294
1133.97924,0.64053
1132.05071,0.65651
1130.12217,0.67076
1128.19364,0.68231
1126.26510,0.69010
1124.33656,0.69352
1122.40803,0.69258
1120.47949,0.68771
1118.55096,0.68111
1116.62242,0.67784
1114.69388,0.68262
1112.76535,0.69526
1110.83681,0.71092
1108.90828,0.72489
1106.97974,0.73651
1105.05120,0.74825
1103.12267,0.76110
1101.19413,0.77181
1099.26559,0.77477
1097.33706,0.76547
1095.40852,0.74309
1093.47999,0.71190
1091.55145,0.68094
1089.62291,0.65958
1087.69438,0.65050
1085.76584,0.64847
1083.83731,0.64726
1081.90877,0.64386
1079.98023,0.63529
1078.05170,0.61837
1076.12316,0.59685
1074.19462,0.58262
1072.26609,0.58362
1070.33755,0.59643
1068.40902,0.61577
1066.48048,0.64256
1064.55194,0.67642
1062.62341,0.70809
1060.69487,0.72613
1058.76634,0.72808
1056.83780,0.72235
1054.90926,0.71932
1052.98073,0.72139
1051.05219,0.72303
1049.12366,0.71792
1047.19512,0.70342
1045.26658,0.68093
1043.33805,0.65524
1041.40951,0.63354
1039.48097,0.62219
1037.55244,0.62288
1035.62390,0.63264
1033.69537,0.64665
1031.76683,0.65867
1029.83829,0.66015
1027.90976,0.64359
1025.98122,0.60851
1024.05269,0.56287
1022.12415,0.51769
1020.19561,0.48123
1018.26708,0.45722
1016.33854,0.44538
1014.41000,0.44112
1012.48147,0.43730
1010.55293,0.43216
1008.62440,0.43516
1006.69586,0.45906
1004.76732,0.50554
1002.83879,0.56295
1000.91025,0.61725
998.98172,0.66038
997.05318,0.69171
995.12464,0.71654
993.19611,0.73988
991.26757,0.76120
989.33904,0.77817
987.41050,0.79092
985.48196,0.80104
983.55343,0.80971
981.62489,0.81730
979.69635,0.82383
977.76782,0.82938
975.83928,0.83401
973.91075,0.83791
971.98221,0.84126
970.05367,0.84375
968.12514,0.84420
966.19660,0.84173
964.26807,0.83777
962.33953,0.83443
960.41099,0.83217
958.48246,0.83196
956.55392,0.83561
954.62538,0.84244
952.69685,0.84965
950.76831,0.85521
948.83978,0.85812
946.91124,0.85780
944.98270,0.85414
943.05417,0.84744
941.12563,0.83840
939.19710,0.82845
937.26856,0.81949
935.34002,0.81284
933.41149,0.80815
931.48295,0.80315
929.55442,0.79485
927.62588,0.78090
925.69734,0.76167
923.76881,0.74246
921.84027,0.73008
919.91173,0.72542
917.98320,0.72379
916.05466,0.72145
914.12613,0.71700
912.19759,0.70888
910.26905,0.69586
908.34052,0.67864
906.41198,0.65901
904.48345,0.63835
902.55491,0.61800
900.62637,0.60021
898.69784,0.58794
896.76930,0.58358
894.84076,0.58754
892.91223,0.59823
890.98369,0.61325
889.05516,0.63048
887.12662,0.64810
885.19808,0.66458
883.26955,0.67906
881.34101,0.69124
879.41248,0.70136
877.48394,0.71019
875.55540,0.71880
873.62687,0.72795
871.69833,0.73740
869.76980,0.74580
867.84126,0.75156
865.91272,0.75403
863.98419,0.75391
862.05565,0.75312
860.12711,0.75395
858.19858,0.75730
856.27004,0.76255
854.34151,0.76968
852.41297,0.77930
850.48443,0.79054
848.55590,0.80158
846.62736,0.81176
844.69883,0.82172
842.77029,0.83200
840.84175,0.84230
838.91322,0.85158
836.98468,0.85856
835.05614,0.86253
833.12761,0.86346
831.19907,0.86145
829.27054,0.85619
827.34200,0.84714
825.41346,0.83382
823.48493,0.81580
821.55639,0.79308
819.62786,0.76736
817.69932,0.74199
815.77078,0.72011
813.84225,0.70327
811.91371,0.69211
809.98517,0.68742
808.05664,0.68939
806.12810,0.69621
804.19957,0.70445
802.27103,0.71112
800.34249,0.71494
798.41396,0.71576
796.48542,0.71417
794.55689,0.71170
792.62835,0.71018
790.69981,0.71020
788.77128,0.70866
786.84274,0.69823
784.91421,0.67366
782.98567,0.63945
781.05713,0.60754
779.12860,0.59040
777.20006,0.59775
775.27152,0.62835
773.34299,0.66636
771.41445,0.69543
769.48592,0.70935
767.55738,0.70906
765.62884,0.69917
763.70031,0.68631
761.77177,0.67514
759.84324,0.66618
757.91470,0.66090
755.98616,0.66430
754.05763,0.67826
752.12909,0.69830
750.20055,0.71981
748.27202,0.74110
746.34348,0.75952
744.41495,0.77155
742.48641,0.77628
740.55787,0.77564
738.62934,0.77236
736.70080,0.76915
734.77227,0.76794
732.84373,0.76854
730.91519,0.76923
728.98666,0.76744
727.05812,0.75945
725.12959,0.74136
723.20105,0.71235
721.27251,0.67698
719.34398,0.64587
717.41544,0.62978
715.48690,0.63106
713.55837,0.64642
711.62983,0.66958
709.70130,0.69192
707.77276,0.70591
705.84422,0.70832
703.91569,0.70190
701.98715,0.69284
700.05862,0.68731
698.13008,0.68899
696.20154,0.69688
694.27301,0.70701
692.34447,0.71711
690.41593,0.72822
688.48740,0.74206
686.55886,0.75876
684.63033,0.77702
682.70179,0.79516
680.77325,0.81122
678.84472,0.82398
676.91618,0.83378
674.98765,0.84153
673.05911,0.84670
671.13057,0.84801
669.20204,0.84839
667.27350,0.85412
665.34497,0.85727
663.41643,0.85206
661.48789,0.84067
659.55936,0.83007
657.63082,0.82642
655.70228,0.82679
653.77375,0.82027
651.84521,0.79836
649.91668,0.76935
647.98814,0.75724
646.05960,0.77523
644.13107,0.80879
642.20253,0.83374
640.27400,0.83824
638.34546,0.82335
636.41692,0.79540
634.48839,0.76489
632.55985,0.74434
630.63131,0.74074
628.70278,0.75102
626.77424,0.76571
624.84571,0.77783
622.91717,0.78745
620.98863,0.79738
619.06010,0.80652
617.13156,0.81112
615.20303,0.81076
613.27449,0.80952
611.34595,0.80948
609.41742,0.80675
607.48888,0.79578
605.56035,0.77556
603.63181,0.74989
601.70327,0.72320
599.77474,0.69842
597.84620,0.67920
595.91766,0.66838
593.98913,0.66520
592.06059,0.66649
590.13206,0.66759
588.20352,0.66035
586.27498,0.63537
584.34645,0.59808
582.41791,0.57238
580.48938,0.57218
578.56084,0.59002
576.63230,0.61666
574.70377,0.64558
572.77523,0.66798
570.84669,0.68188
568.91816,0.69274
566.98962,0.70610
565.06109,0.72212
563.13255,0.73758
561.20401,0.74958
559.27548,0.75662
557.34694,0.75961
555.41841,0.76152
553.48987,0.76453
551.56133,0.76787
549.63280,0.76987
547.70426,0.76994
545.77573,0.76678
543.84719,0.75596
541.91865,0.73310
539.99012,0.70028
538.06158,0.66477
536.13304,0.63276
534.20451,0.61081
532.27597,0.60606
530.34744,0.61672
528.41890,0.63219
526.49036,0.64611
524.56183,0.65875
522.63329,0.66975
520.70476,0.67715
518.77622,0.67880
516.84768,0.67263
514.91915,0.65863
512.99061,0.63938
511.06207,0.61957
509.13354,0.60477
507.20500,0.59551
505.27647,0.58757
503.34793,0.57639
501.41939,0.55930
499.49086,0.54356
497.56232,0.54487
495.63379,0.57136
493.70525,0.61403
491.77671,0.65675
489.84818,0.68897
487.91964,0.70838
485.99110,0.71678
484.06257,0.71592
482.13403,0.70942
480.20550,0.70289
478.27696,0.70103
476.34842,0.70557
474.41989,0.71421
472.49135,0.72354
470.56282,0.72992
468.63428,0.73395
466.70574,0.73878
464.77721,0.74313
462.84867,0.74359
460.92014,0.74025
458.99160,0.73603
457.06306,0.73410
455.13453,0.73637
453.20599,0.74304
451.27745,0.75386
449.34892,0.76513
447.42038,0.77271
445.49185,0.77518
443.56331,0.77411
441.63477,0.77193
439.70624,0.76983
437.77770,0.76753
435.84917,0.76504
433.92063,0.76305
431.99209,0.76161
430.06356,0.76079
428.13502,0.76052
426.20648,0.76136
424.27795,0.76575
422.34941,0.77287
420.42088,0.77884
418.49234,0.78434
416.56380,0.78978
414.63527,0.79248
412.70673,0.79364
410.77820,0.79568
408.84966,0.79905
406.92112,0.80159
404.99259,0.80272
403.06405,0.80382
401.13552,0.80448
399.20698,0.80317
