3997.85540,0.93811
3995.92686,0.93819
3993.99833,0.93825
3992.06979,0.93831
3990.14125,0.93838
3988.21272,0.93839
3986.28418,0.93835
3984.35565,0.93835
3982.42711,0.93841
3980.49857,0.93850
3978.57004,0.93864
3976.64150,0.93877
3974.71297,0.93879
3972.78443,0.93869
3970.85589,0.93855
3968.92736,0.93850
3966.99882,0.93856
3965.07029,0.93864
3963.14175,0.93869
3961.21321,0.93864
3959.28468,0.93855
3957.35614,0.93859
3955.42760,0.93869
3953.49907,0.93867
3951.57053,0.93854
3949.64200,0.93842
3947.71346,0.93840
3945.78492,0.93852
3943.85639,0.93860
3941.92785,0.93855
3939.99932,0.93855
3938.07078,0.93864
3936.14224,0.93872
3934.21371,0.93867
3932.28517,0.93847
3930.35663,0.93835
3928.42810,0.93849
3926.49956,0.93865
3924.57103,0.93862
3922.64249,0.93853
3920.71395,0.93857
3918.78542,0.93873
3916.85688,0.93886
3914.92835,0.93887
3912.99981,0.93886
3911.07127,0.93890
3909.14274,0.93901
3907.21420,0.93913
3905.28566,0.93914
3903.35713,0.93882
3901.42859,0.93848
3899.50006,0.93850
3897.57152,0.93869
3895.64298,0.93889
3893.71445,0.93898
3891.78591,0.93875
3889.85738,0.93861
3887.92884,0.93884
3886.00030,0.93902
3884.07177,0.93896
3882.14323,0.93890
3880.21470,0.93893
3878.28616,0.93901
3876.35762,0.93908
3874.42909,0.93913
3872.50055,0.93931
3870.57201,0.93943
3868.64348,0.93934
3866.71494,0.93939
3864.78641,0.93946
3862.85787,0.93927
3860.92933,0.93906
3859.00080,0.93909
3857.07226,0.93941
3855.14373,0.93993
3853.21519,0.93984
3851.28665,0.93931
3849.35812,0.93938
3847.42958,0.93964
3845.50104,0.93990
3843.57251,0.94017
3841.64397,0.94031
3839.71544,0.93997
3837.78690,0.93922
3835.85836,0.93896
3833.92983,0.93908
3832.00129,0.93926
3830.07276,0.93943
3828.14422,0.93962
3826.21568,0.93984
3824.28715,0.94009
3822.35861,0.94023
3820.43008,0.94009
3818.50154,0.93997
3816.57300,0.93984
3814.64447,0.93973
3812.71593,0.93984
3810.78739,0.94008
3808.85886,0.94035
3806.93032,0.94043
3805.00179,0.94041
3803.07325,0.94051
3801.14471,0.94035
3799.21618,0.94010
3797.28764,0.94026
3795.35911,0.94058
3793.43057,0.94072
3791.50203,0.94063
3789.57350,0.94054
3787.64496,0.94062
3785.71642,0.94071
3783.78789,0.94070
3781.85935,0.94073
3779.93082,0.94074
3778.00228,0.94078
3776.07374,0.94098
3774.14521,0.94121
3772.21667,0.94124
3770.28814,0.94094
3768.35960,0.94063
3766.43106,0.94065
3764.50253,0.94085
3762.57399,0.94113
3760.64546,0.94135
3758.71692,0.94134
3756.78838,0.94130
3754.85985,0.94143
3752.93131,0.94157
3751.00277,0.94162
3749.07424,0.94168
3747.14570,0.94186
3745.21717,0.94179
3743.28863,0.94144
3741.36009,0.94132
3739.43156,0.94130
3737.50302,0.94123
3735.57449,0.94130
3733.64595,0.94131
3731.71741,0.94108
3729.78888,0.94110
3727.86034,0.94130
3725.93180,0.94149
3724.00327,0.94164
3722.07473,0.94172
3720.14620,0.94164
3718.21766,0.94158
3716.28912,0.94173
3714.36059,0.94208
3712.43205,0.94242
3710.50352,0.94222
3708.57498,0.94198
3706.64644,0.94209
3704.71791,0.94224
3702.78937,0.94219
3700.86084,0.94207
3698.93230,0.94214
3697.00376,0.94224
3695.07523,0.94229
3693.14669,0.94244
3691.21815,0.94266
3689.28962,0.94239
3687.36108,0.94199
3685.43255,0.94209
3683.50401,0.94239
3681.57547,0.94264
3679.64694,0.94278
3677.71840,0.94275
3675.78987,0.94220
3673.86133,0.94174
3671.93279,0.94177
3670.00426,0.94173
3668.07572,0.94183
3666.14718,0.94210
3664.21865,0.94234
3662.29011,0.94254
3660.36158,0.94267
3658.43304,0.94269
3656.50450,0.94262
3654.57597,0.94265
3652.64743,0.94294
3650.71890,0.94334
3648.79036,0.94298
3646.86182,0.94225
3644.93329,0.94221
3643.00475,0.94225
3641.07622,0.94221
3639.14768,0.94219
3637.21914,0.94231
3635.29061,0.94243
3633.36207,0.94238
3631.43353,0.94222
3629.50500,0.94210
3627.57646,0.94220
3625.64793,0.94236
3623.71939,0.94243
3621.79085,0.94249
3619.86232,0.94256
3617.93378,0.94258
3616.00525,0.94255
3614.07671,0.94238
3612.14817,0.94224
3610.21964,0.94234
3608.29110,0.94245
3606.36256,0.94245
3604.43403,0.94245
3602.50549,0.94241
3600.57696,0.94236
3598.64842,0.94240
3596.71988,0.94247
3594.79135,0.94246
3592.86281,0.94243
3590.93428,0.94245
3589.00574,0.94237
3587.07720,0.94217
3585.14867,0.94207
3583.22013,0.94211
3581.29160,0.94220
3579.36306,0.94221
3577.43452,0.94204
3575.50599,0.94186
3573.57745,0.94181
3571.64891,0.94184
3569.72038,0.94181
3567.79184,0.94152
3565.86331,0.94106
3563.93477,0.94095
3562.00623,0.94096
3560.07770,0.94091
3558.14916,0.94082
3556.22063,0.94074
3554.29209,0.94060
3552.36355,0.94033
3550.43502,0.94003
3548.50648,0.93977
3546.57794,0.93950
3544.64941,0.93923
3542.72087,0.93902
3540.79234,0.93876
3538.86380,0.93841
3536.93526,0.93799
3535.00673,0.93754
3533.07819,0.93714
3531.14966,0.93670
3529.22112,0.93611
3527.29258,0.93527
3525.36405,0.93412
3523.43551,0.93246
3521.50697,0.93030
3519.57844,0.92754
3517.64990,0.92362
3515.72137,0.91833
3513.79283,0.91178
3511.86429,0.90410
3509.93576,0.89572
3508.00722,0.88849
3506.07869,0.88374
3504.15015,0.88026
3502.22161,0.87728
3500.29308,0.87524
3498.36454,0.87366
3496.43601,0.87179
3494.50747,0.86962
3492.57893,0.86776
3490.65040,0.86668
3488.72186,0.86672
3486.79332,0.86806
3484.86479,0.87041
3482.93625,0.87346
3481.00772,0.87691
3479.07918,0.88039
3477.15064,0.88381
3475.22211,0.88730
3473.29357,0.89069
3471.36504,0.89376
3469.43650,0.89649
3467.50796,0.89899
3465.57943,0.90132
3463.65089,0.90344
3461.72235,0.90530
3459.79382,0.90694
3457.86528,0.90852
3455.93675,0.91002
3454.00821,0.91132
3452.07967,0.91251
3450.15114,0.91366
3448.22260,0.91478
3446.29407,0.91586
3444.36553,0.91680
3442.43699,0.91761
3440.50846,0.91832
3438.57992,0.91885
3436.65139,0.91927
3434.72285,0.91975
3432.79431,0.92022
3430.86578,0.92048
3428.93724,0.92047
3427.00870,0.92020
3425.08017,0.91959
3423.15163,0.91833
3421.22310,0.91583
3419.29456,0.91138
3417.36602,0.90430
3415.43749,0.89397
3413.50895,0.88065
3411.58042,0.86653
3409.65188,0.85452
3407.72334,0.84639
3405.79481,0.84213
3403.86627,0.84048
3401.93773,0.83980
3400.00920,0.83902
3398.08066,0.83807
3396.15213,0.83768
3394.22359,0.83869
3392.29505,0.84144
3390.36652,0.84565
3388.43798,0.85072
3386.50945,0.85632
3384.58091,0.86218
3382.65237,0.86783
3380.72384,0.87296
3378.79530,0.87768
3376.86677,0.88194
3374.93823,0.88563
3373.00969,0.88868
3371.08116,0.89113
3369.15262,0.89316
3367.22408,0.89502
3365.29555,0.89681
3363.36701,0.89843
3361.43848,0.89971
3359.50994,0.90075
3357.58140,0.90184
3355.65287,0.90307
3353.72433,0.90431
3351.79580,0.90528
3349.86726,0.90593
3347.93872,0.90652
3346.01019,0.90724
3344.08165,0.90800
3342.15311,0.90866
3340.22458,0.90920
3338.29604,0.90980
3336.36751,0.91042
3334.43897,0.91097
3332.51043,0.91147
3330.58190,0.91196
3328.65336,0.91244
3326.72483,0.91291
3324.79629,0.91329
3322.86775,0.91354
3320.93922,0.91372
3319.01068,0.91400
3317.08215,0.91442
3315.15361,0.91486
3313.22507,0.91535
3311.29654,0.91598
3309.36800,0.91667
3307.43946,0.91718
3305.51093,0.91747
3303.58239,0.91771
3301.65386,0.91794
3299.72532,0.91826
3297.79678,0.91874
3295.86825,0.91924
3293.93971,0.91969
3292.01118,0.92003
3290.08264,0.92021
3288.15410,0.92039
3286.22557,0.92073
3284.29703,0.92112
3282.36849,0.92136
3280.43996,0.92151
3278.51142,0.92173
3276.58289,0.92203
3274.65435,0.92233
3272.72581,0.92255
3270.79728,0.92265
3268.86874,0.92264
3266.94021,0.92264
3265.01167,0.92274
3263.08313,0.92290
3261.15460,0.92300
3259.22606,0.92300
3257.29753,0.92303
3255.36899,0.92320
3253.44045,0.92345
3251.51192,0.92378
3249.58338,0.92425
3247.65484,0.92470
3245.72631,0.92485
3243.79777,0.92482
3241.86924,0.92487
3239.94070,0.92500
3238.01216,0.92512
3236.08363,0.92525
3234.15509,0.92535
3232.22656,0.92526
3230.29802,0.92502
3228.36948,0.92483
3226.44095,0.92476
3224.51241,0.92473
3222.58387,0.92469
3220.65534,0.92462
3218.72680,0.92444
3216.79827,0.92419
3214.86973,0.92392
3212.94119,0.92352
3211.01266,0.92306
3209.08412,0.92282
3207.15559,0.92275
3205.22705,0.92252
3203.29851,0.92201
3201.36998,0.92128
3199.44144,0.92042
3197.51290,0.91969
3195.58437,0.91934
3193.65583,0.91939
3191.72730,0.91964
3189.79876,0.91991
3187.87022,0.92021
3185.94169,0.92064
3184.01315,0.92129
3182.08462,0.92204
3180.15608,0.92274
3178.22754,0.92332
3176.29901,0.92382
3174.37047,0.92433
3172.44194,0.92487
3170.51340,0.92541
3168.58486,0.92598
3166.65633,0.92648
3164.72779,0.92683
3162.79925,0.92713
3160.87072,0.92746
3158.94218,0.92779
3157.01365,0.92820
3155.08511,0.92866
3153.15657,0.92893
3151.22804,0.92888
3149.29950,0.92870
3147.37097,0.92865
3145.44243,0.92879
3143.51389,0.92907
3141.58536,0.92942
3139.65682,0.92970
3137.72828,0.92980
3135.79975,0.92987
3133.87121,0.93011
3131.94268,0.93047
3130.01414,0.93071
3128.08560,0.93080
3126.15707,0.93083
3124.22853,0.93077
3122.30000,0.93069
3120.37146,0.93074
3118.44292,0.93091
3116.51439,0.93107
3114.58585,0.93111
3112.65732,0.93104
3110.72878,0.93092
3108.80024,0.93073
3106.87171,0.93046
3104.94317,0.93024
3103.01463,0.93018
3101.08610,0.93022
3099.15756,0.93019
3097.22903,0.93006
3095.30049,0.92987
3093.37195,0.92974
3091.44342,0.92966
3089.51488,0.92938
3087.58635,0.92867
3085.65781,0.92770
3083.72927,0.92679
3081.80074,0.92620
3079.87220,0.92605
3077.94366,0.92621
3076.01513,0.92641
3074.08659,0.92654
3072.15806,0.92665
3070.22952,0.92673
3068.30098,0.92669
3066.37245,0.92651
3064.44391,0.92619
3062.51538,0.92583
3060.58684,0.92568
3058.65830,0.92578
3056.72977,0.92584
3054.80123,0.92562
3052.87270,0.92515
3050.94416,0.92442
3049.01562,0.92369
3047.08709,0.92352
3045.15855,0.92399
3043.23001,0.92440
3041.30148,0.92422
3039.37294,0.92356
3037.44441,0.92308
3035.51587,0.92321
3033.58733,0.92356
3031.65880,0.92361
3029.73026,0.92328
3027.80173,0.92275
3025.87319,0.92225
3023.94465,0.92196
3022.01612,0.92203
3020.08758,0.92250
3018.15904,0.92313
3016.23051,0.92362
3014.30197,0.92382
3012.37344,0.92377
3010.44490,0.92341
3008.51636,0.92269
3006.58783,0.92185
3004.65929,0.92111
3002.73076,0.92031
3000.80222,0.91950
2998.87368,0.91886
2996.94515,0.91827
2995.01661,0.91758
2993.08808,0.91666
2991.15954,0.91505
2989.23100,0.91251
2987.30247,0.90935
2985.37393,0.90589
2983.44539,0.90208
2981.51686,0.89746
2979.58832,0.89138
2977.65979,0.88367
2975.73125,0.87463
2973.80271,0.86414
2971.87418,0.85213
2969.94564,0.83935
2968.01711,0.82665
2966.08857,0.81461
2964.16003,0.80368
2962.23150,0.79391
2960.30296,0.78548
2958.37442,0.77917
2956.44589,0.77607
2954.51735,0.77695
2952.58882,0.78147
2950.66028,0.78822
2948.73174,0.79561
2946.80321,0.80188
2944.87467,0.80513
2942.94614,0.80409
2941.01760,0.79871
2939.08906,0.78995
2937.16053,0.77882
2935.23199,0.76609
2933.30346,0.75264
2931.37492,0.73923
2929.44638,0.72625
2927.51785,0.71466
2925.58931,0.70622
2923.66077,0.70249
2921.73224,0.70397
2919.80370,0.71011
2917.87517,0.71948
2915.94663,0.73029
2914.01809,0.74117
2912.08956,0.75142
2910.16102,0.76072
2908.23249,0.76908
2906.30395,0.77678
2904.37541,0.78405
2902.44688,0.79097
2900.51834,0.79766
2898.58980,0.80425
2896.66127,0.81075
2894.73273,0.81700
2892.80420,0.82305
2890.87566,0.82889
2888.94712,0.83419
2887.01859,0.83860
2885.09005,0.84189
2883.16152,0.84363
2881.23298,0.84328
2879.30444,0.84063
2877.37591,0.83584
2875.44737,0.82984
2873.51883,0.82434
2871.59030,0.82090
2869.66176,0.81979
2867.73323,0.81980
2865.80469,0.81898
2863.87615,0.81590
2861.94762,0.81045
2860.01908,0.80339
2858.09055,0.79584
2856.16201,0.78952
2854.23347,0.78674
2852.30494,0.78945
2850.37640,0.79790
2848.44787,0.81025
2846.51933,0.82384
2844.59079,0.83701
2842.66226,0.84949
2840.73372,0.86124
2838.80518,0.87176
2836.87665,0.88061
2834.94811,0.88787
2833.01958,0.89379
2831.09104,0.89858
2829.16250,0.90242
2827.23397,0.90561
2825.30543,0.90823
2823.37690,0.91025
2821.44836,0.91176
2819.51982,0.91298
2817.59129,0.91405
2815.66275,0.91504
2813.73421,0.91595
2811.80568,0.91683
2809.87714,0.91762
2807.94861,0.91818
2806.02007,0.91862
2804.09153,0.91910
2802.16300,0.91971
2800.23446,0.92048
2798.30593,0.92127
2796.37739,0.92191
2794.44885,0.92247
2792.52032,0.92305
2790.59178,0.92362
2788.66325,0.92403
2786.73471,0.92429
2784.80617,0.92456
2782.87764,0.92486
2780.94910,0.92511
2779.02056,0.92542
2777.09203,0.92594
2775.16349,0.92650
2773.23496,0.92684
2771.30642,0.92699
2769.37788,0.92718
2767.44935,0.92738
2765.52081,0.92746
2763.59228,0.92745
2761.66374,0.92749
2759.73520,0.92763
2757.80667,0.92771
2755.87813,0.92769
2753.94959,0.92773
2752.02106,0.92802
2750.09252,0.92843
2748.16399,0.92857
2746.23545,0.92837
2744.30691,0.92811
2742.37838,0.92799
2740.44984,0.92797
2738.52131,0.92793
2736.59277,0.92779
2734.66423,0.92753
2732.73570,0.92726
2730.80716,0.92710
2728.87863,0.92708
2726.95009,0.92708
2725.02155,0.92704
2723.09302,0.92691
2721.16448,0.92673
2719.23594,0.92663
2717.30741,0.92669
2715.37887,0.92689
2713.45034,0.92715
2711.52180,0.92746
2709.59326,0.92781
2707.66473,0.92811
2705.73619,0.92837
2703.80766,0.92860
2701.87912,0.92878
2699.95058,0.92889
2698.02205,0.92893
2696.09351,0.92896
2694.16497,0.92899
2692.23644,0.92901
2690.30790,0.92898
2688.37937,0.92892
2686.45083,0.92881
2684.52229,0.92865
2682.59376,0.92849
2680.66522,0.92832
2678.73669,0.92812
2676.80815,0.92782
2674.87961,0.92750
2672.95108,0.92730
2671.02254,0.92732
2669.09401,0.92748
2667.16547,0.92766
2665.23693,0.92782
2663.30840,0.92794
2661.37986,0.92804
2659.45132,0.92818
2657.52279,0.92834
2655.59425,0.92849
2653.66572,0.92858
2651.73718,0.92867
2649.80864,0.92885
2647.88011,0.92903
2645.95157,0.92911
2644.02304,0.92914
2642.09450,0.92931
2640.16596,0.92961
2638.23743,0.92984
2636.30889,0.92990
2634.38035,0.92999
2632.45182,0.93016
2630.52328,0.93036
2628.59475,0.93056
2626.66621,0.93080
2624.73767,0.93097
2622.80914,0.93104
2620.88060,0.93119
2618.95207,0.93157
2617.02353,0.93205
2615.09499,0.93246
2613.16646,0.93278
2611.23792,0.93304
2609.30939,0.93321
2607.38085,0.93327
2605.45231,0.93324
2603.52378,0.93318
2601.59524,0.93307
2599.66670,0.93294
2597.73817,0.93295
2595.80963,0.93318
2593.88110,0.93347
2591.95256,0.93373
2590.02402,0.93404
2588.09549,0.93436
2586.16695,0.93456
2584.23842,0.93463
2582.30988,0.93468
2580.38134,0.93469
2578.45281,0.93466
2576.52427,0.93459
2574.59573,0.93454
2572.66720,0.93457
2570.73866,0.93484
2568.81013,0.93541
2566.88159,0.93599
2564.95305,0.93634
2563.02452,0.93647
2561.09598,0.93646
2559.16745,0.93644
2557.23891,0.93640
2555.31037,0.93627
2553.38184,0.93607
2551.45330,0.93588
2549.52476,0.93577
2547.59623,0.93567
2545.66769,0.93553
2543.73916,0.93546
2541.81062,0.93549
2539.88208,0.93561
2537.95355,0.93588
2536.02501,0.93629
2534.09648,0.93674
2532.16794,0.93718
2530.23940,0.93754
2528.31087,0.93785
2526.38233,0.93814
2524.45380,0.93832
2522.52526,0.93833
2520.59672,0.93827
2518.66819,0.93816
2516.73965,0.93812
2514.81111,0.93824
2512.88258,0.93845
2510.95404,0.93864
2509.02551,0.93879
2507.09697,0.93900
2505.16843,0.93918
2503.23990,0.93918
2501.31136,0.93901
2499.38283,0.93873
2497.45429,0.93848
2495.52575,0.93841
2493.59722,0.93851
2491.66868,0.93861
2489.74014,0.93866
2487.81161,0.93872
2485.88307,0.93879
2483.95454,0.93874
2482.02600,0.93855
2480.09746,0.93827
2478.16893,0.93794
2476.24039,0.93756
2474.31186,0.93712
2472.38332,0.93670
2470.45478,0.93639
2468.52625,0.93619
2466.59771,0.93621
2464.66918,0.93650
2462.74064,0.93684
2460.81210,0.93704
2458.88357,0.93717
2456.95503,0.93737
2455.02649,0.93768
2453.09796,0.93798
2451.16942,0.93814
2449.24089,0.93814
2447.31235,0.93811
2445.38381,0.93814
2443.45528,0.93820
2441.52674,0.93827
2439.59821,0.93833
2437.66967,0.93830
2435.74113,0.93817
2433.81260,0.93801
2431.88406,0.93793
2429.95552,0.93788
2428.02699,0.93780
2426.09845,0.93774
2424.16992,0.93765
2422.24138,0.93753
2420.31284,0.93754
2418.38431,0.93759
2416.45577,0.93746
2414.52724,0.93709
2412.59870,0.93669
2410.67016,0.93642
2408.74163,0.93619
2406.81309,0.93585
2404.88456,0.93543
2402.95602,0.93502
2401.02748,0.93461
2399.09895,0.93433
2397.17041,0.93420
2395.24187,0.93418
2393.31334,0.93428
2391.38480,0.93459
2389.45627,0.93501
2387.52773,0.93548
2385.59919,0.93601
2383.67066,0.93655
2381.74212,0.93692
2379.81359,0.93704
2377.88505,0.93698
2375.95651,0.93677
2374.02798,0.93640
2372.09944,0.93601
2370.17090,0.93580
2368.24237,0.93568
2366.31383,0.93505
2364.38530,0.93390
2362.45676,0.93313
2360.52822,0.93296
2358.59969,0.93303
2356.67115,0.93337
2354.74262,0.93417
2352.81408,0.93519
2350.88554,0.93609
2348.95701,0.93658
2347.02847,0.93649
2345.09994,0.93573
2343.17140,0.93468
2341.24286,0.93407
2339.31433,0.93399
2337.38579,0.93427
2335.45725,0.93463
2333.52872,0.93488
2331.60018,0.93512
2329.67165,0.93529
2327.74311,0.93518
2325.81457,0.93488
2323.88604,0.93475
2321.95750,0.93504
2320.02897,0.93555
2318.10043,0.93611
2316.17189,0.93673
2314.24336,0.93733
2312.31482,0.93781
2310.38628,0.93819
2308.45775,0.93856
2306.52921,0.93902
2304.60068,0.93951
2302.67214,0.93996
2300.74360,0.94035
2298.81507,0.94070
2296.88653,0.94095
2294.95800,0.94109
2293.02946,0.94122
2291.10092,0.94149
2289.17239,0.94190
2287.24385,0.94215
2285.31532,0.94214
2283.38678,0.94207
2281.45824,0.94213
2279.52971,0.94239
2277.60117,0.94279
2275.67263,0.94311
2273.74410,0.94314
2271.81556,0.94298
2269.88703,0.94298
2267.95849,0.94329
2266.02995,0.94363
2264.10142,0.94369
2262.17288,0.94352
2260.24435,0.94335
2258.31581,0.94328
2256.38727,0.94326
2254.45874,0.94330
2252.53020,0.94338
2250.60166,0.94353
2248.67313,0.94355
2246.74459,0.94338
2244.81606,0.94334
2242.88752,0.94350
2240.95898,0.94360
2239.03045,0.94360
2237.10191,0.94368
2235.17338,0.94395
2233.24484,0.94429
2231.31630,0.94452
2229.38777,0.94465
2227.45923,0.94493
2225.53070,0.94527
2223.60216,0.94539
2221.67362,0.94532
2219.74509,0.94523
2217.81655,0.94515
2215.88801,0.94509
2213.95948,0.94519
2212.03094,0.94548
2210.10241,0.94586
2208.17387,0.94620
2206.24533,0.94643
2204.31680,0.94665
2202.38826,0.94693
2200.45973,0.94727
2198.53119,0.94749
2196.60265,0.94753
2194.67412,0.94772
2192.74558,0.94795
2190.81704,0.94787
2188.88851,0.94779
2186.95997,0.94806
2185.03144,0.94824
2183.10290,0.94813
2181.17436,0.94801
2179.24583,0.94787
2177.31729,0.94782
2175.38876,0.94791
2173.46022,0.94793
2171.53168,0.94796
2169.60315,0.94825
2167.67461,0.94858
2165.74607,0.94890
2163.81754,0.94940
2161.88900,0.95024
2159.96047,0.95141
2158.03193,0.95226
2156.10339,0.95229
2154.17486,0.95167
2152.24632,0.95089
2150.31779,0.95031
2148.38925,0.94976
2146.46071,0.94926
2144.53218,0.94906
2142.60364,0.94912
2140.67511,0.94916
2138.74657,0.94904
2136.81803,0.94881
2134.88950,0.94848
2132.96096,0.94813
2131.03242,0.94775
2129.10389,0.94747
2127.17535,0.94737
2125.24682,0.94737
2123.31828,0.94743
2121.38974,0.94755
2119.46121,0.94776
2117.53267,0.94801
2115.60414,0.94815
2113.67560,0.94804
2111.74706,0.94784
2109.81853,0.94781
2107.88999,0.94792
2105.96145,0.94797
2104.03292,0.94798
2102.10438,0.94807
2100.17585,0.94809
2098.24731,0.94800
2096.31877,0.94794
2094.39024,0.94789
2092.46170,0.94777
2090.53317,0.94762
2088.60463,0.94743
2086.67609,0.94713
2084.74756,0.94688
2082.81902,0.94673
2080.89049,0.94656
2078.96195,0.94657
2077.03341,0.94680
2075.10488,0.94705
2073.17634,0.94731
2071.24780,0.94769
2069.31927,0.94810
2067.39073,0.94837
2065.46220,0.94849
2063.53366,0.94863
2061.60512,0.94875
2059.67659,0.94891
2057.74805,0.94932
2055.81952,0.94997
2053.89098,0.95053
2051.96244,0.95090
2050.03391,0.95138
2048.10537,0.95201
2046.17683,0.95252
2044.24830,0.95281
2042.31976,0.95290
2040.39123,0.95295
2038.46269,0.95321
2036.53415,0.95377
2034.60562,0.95437
2032.67708,0.95456
2030.74855,0.95432
2028.82001,0.95402
2026.89147,0.95397
2024.96294,0.95427
2023.03440,0.95462
2021.10587,0.95468
2019.17733,0.95460
2017.24879,0.95452
2015.32026,0.95436
2013.39172,0.95413
2011.46318,0.95394
2009.53465,0.95406
2007.60611,0.95446
2005.67758,0.95460
2003.74904,0.95403
2001.82050,0.95315
1999.89197,0.95254
1997.96343,0.95201
1996.03490,0.95124
1994.10636,0.95027
1992.17782,0.94938
1990.24929,0.94917
1988.32075,0.94979
1986.39221,0.95053
1984.46368,0.95083
1982.53514,0.95104
1980.60661,0.95154
1978.67807,0.95185
1976.74953,0.95116
1974.82100,0.94941
1972.89246,0.94715
1970.96393,0.94520
1969.03539,0.94423
1967.10685,0.94436
1965.17832,0.94566
1963.24978,0.94754
1961.32125,0.94924
1959.39271,0.95040
1957.46417,0.95104
1955.53564,0.95131
1953.60710,0.95143
1951.67856,0.95177
1949.75003,0.95213
1947.82149,0.95228
1945.89296,0.95240
1943.96442,0.95262
1942.03588,0.95275
1940.10735,0.95257
1938.17881,0.95240
1936.25028,0.95239
1934.32174,0.95245
1932.39320,0.95237
1930.46467,0.95195
1928.53613,0.95125
1926.60759,0.95049
1924.67906,0.94975
1922.75052,0.94897
1920.82199,0.94858
1918.89345,0.94865
1916.96491,0.94874
1915.03638,0.94891
1913.10784,0.94925
1911.17931,0.94944
1909.25077,0.94889
1907.32223,0.94740
1905.39370,0.94542
1903.46516,0.94340
1901.53663,0.94169
1899.60809,0.94078
1897.67955,0.94109
1895.75102,0.94257
1893.82248,0.94455
1891.89394,0.94632
1889.96541,0.94781
1888.03687,0.94885
1886.10834,0.94934
1884.17980,0.94970
1882.25126,0.94999
1880.32273,0.95012
1878.39419,0.95010
1876.46566,0.95012
1874.53712,0.95034
1872.60858,0.95080
1870.68005,0.95140
1868.75151,0.95173
1866.82297,0.95173
1864.89444,0.95176
1862.96590,0.95175
1861.03737,0.95162
1859.10883,0.95137
1857.18029,0.95108
1855.25176,0.95072
1853.32322,0.95027
1851.39469,0.94978
1849.46615,0.94934
1847.53761,0.94906
1845.60908,0.94902
1843.68054,0.94931
1841.75200,0.94972
1839.82347,0.95013
1837.89493,0.95056
1835.96640,0.95092
1834.03786,0.95106
1832.10932,0.95099
1830.18079,0.95068
1828.25225,0.95023
1826.32372,0.94983
1824.39518,0.94926
1822.46664,0.94881
1820.53811,0.94882
1818.60957,0.94916
1816.68104,0.94963
1814.75250,0.94997
1812.82396,0.95010
1810.89543,0.94992
1808.96689,0.94954
1807.03835,0.94926
1805.10982,0.94917
1803.18128,0.94930
1801.25275,0.94970
1799.32421,0.95020
1797.39567,0.95057
1795.46714,0.95087
1793.53860,0.95117
1791.61007,0.95126
1789.68153,0.95114
1787.75299,0.95085
1785.82446,0.95019
1783.89592,0.94919
1781.96738,0.94815
1780.03885,0.94712
1778.11031,0.94635
1776.18178,0.94601
1774.25324,0.94610
1772.32470,0.94682
1770.39617,0.94771
1768.46763,0.94814
1766.53910,0.94827
1764.61056,0.94827
1762.68202,0.94826
1760.75349,0.94832
1758.82495,0.94855
1756.89642,0.94908
1754.96788,0.94969
1753.03934,0.95008
1751.11081,0.95009
1749.18227,0.94958
1747.25373,0.94890
1745.32520,0.94855
1743.39666,0.94852
1741.46813,0.94876
1739.53959,0.94918
1737.61105,0.94954
1735.68252,0.94992
1733.75398,0.95056
1731.82545,0.95107
1729.89691,0.95142
1727.96837,0.95178
1726.03984,0.95207
1724.11130,0.95218
1722.18276,0.95208
1720.25423,0.95185
1718.32569,0.95130
1716.39716,0.94977
1714.46862,0.94863
1712.54008,0.94849
1710.61155,0.94871
1708.68301,0.94902
1706.75448,0.94927
1704.82594,0.94943
1702.89740,0.94956
1700.96887,0.94968
1699.04033,0.94995
1697.11180,0.95044
1695.18326,0.95097
1693.25472,0.95130
1691.32619,0.95169
1689.39765,0.95221
1687.46911,0.95264
1685.54058,0.95265
1683.61204,0.95057
1681.68351,0.94809
1679.75497,0.94693
1677.82643,0.94633
1675.89790,0.94566
1673.96936,0.94435
1672.04083,0.94210
1670.11229,0.93458
1668.18375,0.91972
1666.25522,0.90525
1664.32668,0.88344
1662.39814,0.84467
1660.46961,0.81388
1658.54107,0.80539
1656.61254,0.80606
1654.68400,0.81369
1652.75546,0.84157
1650.82693,0.86051
1648.89839,0.86929
1646.96986,0.88614
1645.04132,0.90070
1643.11278,0.90533
1641.18425,0.90805
1639.25571,0.91027
1637.32718,0.91157
1635.39864,0.91097
1633.47010,0.90844
1631.54157,0.90543
1629.61303,0.90072
1627.68449,0.89378
1625.75596,0.88760
1623.82742,0.88356
1621.89889,0.88122
1619.97035,0.87975
1618.04181,0.87556
1616.11328,0.86250
1614.18474,0.84760
1612.25621,0.83408
1610.32767,0.81631
1608.39913,0.79184
1606.47060,0.76323
1604.54206,0.73307
1602.61352,0.70338
1600.68499,0.68439
1598.75645,0.68416
1596.82792,0.70169
1594.89938,0.73326
1592.97084,0.76777
1591.04231,0.79738
1589.11377,0.82240
1587.18524,0.84282
1585.25670,0.85847
1583.32816,0.86921
1581.39963,0.87444
1579.47109,0.87354
1577.54256,0.85967
1575.61402,0.83150
1573.68548,0.82805
1571.75695,0.84481
1569.82841,0.87173
1567.89987,0.89521
1565.97134,0.90579
1564.04280,0.91216
1562.11427,0.91599
1560.18573,0.91834
1558.25719,0.92237
1556.32866,0.92385
1554.40012,0.92466
1552.47159,0.92483
1550.54305,0.92452
1548.61451,0.92417
1546.68598,0.92480
1544.75744,0.92731
1542.82890,0.93204
1540.90037,0.93990
1538.97183,0.94279
1537.04330,0.94251
1535.11476,0.94043
1533.18622,0.93424
1531.25769,0.92530
1529.32915,0.91342
1527.40062,0.88562
1525.47208,0.83183
1523.54354,0.77016
1521.61501,0.70533
1519.68647,0.67774
1517.75793,0.70676
1515.82940,0.76204
1513.90086,0.79891
1511.97233,0.81772
1510.04379,0.82979
1508.11525,0.81649
1506.18672,0.74570
1504.25818,0.71675
1502.32965,0.70805
1500.40111,0.70169
1498.47257,0.68967
1496.54404,0.65261
1494.61550,0.60747
1492.68697,0.57151
1490.75843,0.52214
1488.82989,0.43777
1486.90136,0.37568
1484.97282,0.35091
1483.04428,0.34595
1481.11575,0.35827
1479.18721,0.38170
1477.25868,0.40978
1475.33014,0.44259
1473.40160,0.48253
1471.47307,0.51602
1469.54453,0.53043
1467.61600,0.54004
1465.68746,0.55463
1463.75892,0.57459
1461.83039,0.59015
1459.90185,0.60294
1457.97331,0.62979
1456.04478,0.67724
1454.11624,0.70206
1452.18771,0.72042
1450.25917,0.73910
1448.33063,0.75379
1446.40210,0.74843
1444.47356,0.71020
1442.54503,0.64866
1440.61649,0.59320
1438.68795,0.56755
1436.75942,0.57627
1434.83088,0.60131
1432.90235,0.61930
1430.97381,0.63656
1429.04527,0.65509
1427.11674,0.66945
1425.18820,0.68215
1423.25966,0.69700
1421.33113,0.71139
1419.40259,0.72812
1417.47406,0.74711
1415.54552,0.75804
1413.61698,0.76547
1411.68845,0.77289
1409.75991,0.77993
1407.83138,0.78516
1405.90284,0.78846
1403.97430,0.78956
1402.04577,0.78846
1400.11723,0.78584
1398.18869,0.78167
1396.26016,0.77723
1394.33162,0.77222
1392.40309,0.76701
1390.47455,0.76185
1388.54601,0.75508
1386.61748,0.74750
1384.68894,0.74427
1382.76041,0.74570
1380.83187,0.74893
1378.90333,0.75293
1376.97480,0.75856
1375.04626,0.76802
1373.11773,0.77972
1371.18919,0.78722
1369.26065,0.79122
1367.33212,0.79405
1365.40358,0.79720
1363.47504,0.80343
1361.54651,0.81409
1359.61797,0.82424
1357.68944,0.83185
1355.76090,0.83815
1353.83236,0.84304
1351.90383,0.84652
1349.97529,0.84908
1348.04676,0.85092
1346.11822,0.85209
1344.18968,0.85250
1342.26115,0.85230
1340.33261,0.85131
1338.40407,0.84992
1336.47554,0.84974
1334.54700,0.85145
1332.61847,0.85504
1330.68993,0.85970
1328.76139,0.86421
1326.83286,0.86643
1324.90432,0.86061
1322.97579,0.83923
1321.04725,0.80578
1319.11871,0.77617
1317.19018,0.75706
1315.26164,0.73704
1313.33311,0.71515
1311.40457,0.70958
1309.47603,0.72790
1307.54750,0.75633
1305.61896,0.77833
1303.69042,0.78794
1301.76189,0.78827
1299.83335,0.78488
1297.90482,0.78261
1295.97628,0.78333
1294.04774,0.78661
1292.11921,0.79130
1290.19067,0.79627
1288.26214,0.80071
1286.33360,0.80398
1284.40506,0.80509
1282.47653,0.80208
1280.54799,0.79266
1278.61945,0.77755
1276.69092,0.76326
1274.76238,0.75790
1272.83385,0.76407
1270.90531,0.77866
1268.97677,0.79640
1267.04824,0.81312
1265.11970,0.82677
1263.19117,0.83695
1261.26263,0.84454
1259.33409,0.85024
1257.40556,0.85424
1255.47702,0.85687
1253.54849,0.85864
1251.61995,0.86003
1249.69141,0.86152
1247.76288,0.86348
1245.83434,0.86596
1243.90580,0.86875
1241.97727,0.87152
1240.04873,0.87412
1238.12020,0.87650
1236.19166,0.87860
1234.26312,0.88042
1232.33459,0.88197
1230.40605,0.88320
1228.47752,0.88393
1226.54898,0.88377
1224.62044,0.88231
1222.69191,0.87981
1220.76337,0.87762
1218.83483,0.87652
1216.90630,0.87510
1214.97776,0.87110
1213.04923,0.86407
1211.12069,0.85415
1209.19215,0.83982
1207.26362,0.82209
1205.33508,0.80893
1203.40655,0.80758
1201.47801,0.81566
1199.54947,0.82454
1197.62094,0.82794
1195.69240,0.82570
1193.76387,0.82223
1191.83533,0.82254
1189.90679,0.82855
1187.97826,0.83823
1186.04972,0.84753
1184.12118,0.85217
1182.19265,0.84952
1180.26411,0.84207
1178.33558,0.83748
1176.40704,0.83945
1174.47850,0.84277
1172.54997,0.84089
1170.62143,0.83215
1168.69290,0.81714
1166.76436,0.79565
1164.83582,0.76725
1162.90729,0.73366
1160.97875,0.69902
1159.05021,0.66465
1157.12168,0.63147
1155.19314,0.61211
1153.26461,0.62179
1151.33607,0.65592
1149.40753,0.69564
1147.47900,0.72861
1145.55046,0.75249
1143.62193,0.76802
1141.69339,0.77661
1139.76485,0.78084
1137.83632,0.78359
1135.90778,0.78621
1133.97924,0.78808
1132.05071,0.78760
1130.12217,0.78341
1128.19364,0.77549
1126.26510,0.76595
1124.33656,0.75813
1122.40803,0.75385
1120.47949,0.75216
1118.55096,0.75136
1116.62242,0.75130
1114.69388,0.75290
1112.76535,0.75659
1110.83681,0.76230
1108.90828,0.77034
1106.97974,0.78112
1105.05120,0.79385
1103.12267,0.80678
1101.19413,0.81834
1099.26559,0.82764
1097.33706,0.83428
1095.40852,0.83835
1093.47999,0.84019
1091.55145,0.83993
1089.62291,0.83724
1087.69438,0.83145
1085.76584,0.82289
1083.83731,0.81499
1081.90877,0.81162
1079.98023,0.80999
1078.05170,0.80165
1076.12316,0.78682
1074.19462,0.78062
1072.26609,0.79400
1070.33755,0.81848
1068.40902,0.83927
1066.48048,0.84962
1064.55194,0.84748
1062.62341,0.82860
1060.69487,0.78606
1058.76634,0.71983
1056.83780,0.64986
1054.90926,0.60926
1052.98073,0.61427
1051.05219,0.65065
1049.12366,0.69453
1047.19512,0.73292
1045.26658,0.76303
1043.33805,0.78584
1041.40951,0.80320
1039.48097,0.81671
1037.55244,0.82719
1035.62390,0.83495
1033.69537,0.83962
1031.76683,0.83932
1029.83829,0.83075
1027.90976,0.81408
1025.98122,0.79914
1024.05269,0.79763
1022.12415,0.80802
1020.19561,0.81972
1018.26708,0.82791
1016.33854,0.83374
1014.41000,0.83777
1012.48147,0.84034
1010.55293,0.84288
1008.62440,0.84645
1006.69586,0.85037
1004.76732,0.85257
1002.83879,0.84910
1000.91025,0.83509
998.98172,0.81474
997.05318,0.80421
995.12464,0.81170
993.19611,0.82704
991.26757,0.83784
989.33904,0.84023
987.41050,0.83516
985.48196,0.82340
983.55343,0.80320
981.62489,0.77046
979.69635,0.72136
977.76782,0.65648
975.83928,0.58186
973.91075,0.50710
971.98221,0.44552
970.05367,0.41067
968.12514,0.40640
966.19660,0.42429
964.26807,0.45186
962.33953,0.48036
960.41099,0.50671
958.48246,0.53120
956.55392,0.55437
954.62538,0.57583
952.69685,0.59528
950.76831,0.61338
948.83978,0.63096
946.91124,0.64830
944.98270,0.66515
943.05417,0.68099
941.12563,0.69525
939.19710,0.70778
937.26856,0.71868
935.34002,0.72739
933.41149,0.73197
931.48295,0.72907
929.55442,0.71663
927.62588,0.69805
925.69734,0.68135
923.76881,0.67497
921.84027,0.68371
919.91173,0.70343
917.98320,0.72361
916.05466,0.73794
914.12613,0.74654
912.19759,0.75128
910.26905,0.75420
908.34052,0.75725
906.41198,0.76159
904.48345,0.76748
902.55491,0.77421
900.62637,0.78047
898.69784,0.78534
896.76930,0.78884
894.84076,0.79130
892.91223,0.79290
890.98369,0.79383
889.05516,0.79457
887.12662,0.79540
885.19808,0.79594
883.26955,0.79566
881.34101,0.79463
879.41248,0.79355
877.48394,0.79332
875.55540,0.79412
873.62687,0.79499
871.69833,0.79468
869.76980,0.79319
867.84126,0.79147
865.91272,0.78874
863.98419,0.78119
862.05565,0.77093
860.12711,0.76949
858.19858,0.77958
856.27004,0.79042
854.34151,0.79525
852.41297,0.79461
850.48443,0.78799
848.55590,0.77008
846.62736,0.72948
844.69883,0.66072
842.77029,0.58840
840.84175,0.55682
838.91322,0.58005
836.98468,0.63007
835.05614,0.67650
833.12761,0.70963
831.19907,0.73168
829.27054,0.74646
827.34200,0.75691
825.41346,0.76471
823.48493,0.77026
821.55639,0.77352
819.62786,0.77474
817.69932,0.77517
815.77078,0.77661
813.84225,0.77991
811.91371,0.78436
809.98517,0.78870
808.05664,0.79241
806.12810,0.79577
804.19957,0.79927
802.27103,0.80279
800.34249,0.80570
798.41396,0.80730
796.48542,0.80699
794.55689,0.80378
792.62835,0.79376
790.69981,0.76659
788.77128,0.70960
786.84274,0.62802
784.91421,0.55922
782.98567,0.54350
781.05713,0.57926
779.12860,0.63178
777.20006,0.67494
775.27152,0.70341
773.34299,0.72118
771.41445,0.73327
769.48592,0.74266
767.55738,0.75008
765.62884,0.75590
763.70031,0.76112
761.77177,0.76603
759.84324,0.76993
757.91470,0.77240
755.98616,0.77360
754.05763,0.77370
752.12909,0.77247
750.20055,0.76926
748.27202,0.76211
746.34348,0.74677
744.41495,0.72165
742.48641,0.69922
740.55787,0.69942
738.62934,0.72272
736.70080,0.74964
734.77227,0.76659
732.84373,0.77188
730.91519,0.76453
728.98666,0.73817
727.05812,0.68064
725.12959,0.58989
723.20105,0.49808
721.27251,0.45555
719.34398,0.48088
717.41544,0.54195
715.48690,0.60065
713.55837,0.64301
711.62983,0.66966
709.70130,0.68663
707.77276,0.69747
705.84422,0.69571
703.91569,0.66656
701.98715,0.60755
700.05862,0.54715
698.13008,0.52520
696.20154,0.55060
694.27301,0.59515
692.34447,0.63165
690.41593,0.65474
688.48740,0.66962
686.55886,0.68029
684.63033,0.68845
682.70179,0.69480
680.77325,0.69923
678.84472,0.70137
676.91618,0.70156
674.98765,0.70131
673.05911,0.70140
671.13057,0.70130
669.20204,0.69994
667.27350,0.69858
665.34497,0.70068
663.41643,0.70514
661.48789,0.71036
659.55936,0.71499
657.63082,0.71869
655.70228,0.72021
653.77375,0.71397
651.84521,0.69094
649.91668,0.65202
647.98814,0.61439
646.05960,0.59152
644.13107,0.58446
642.20253,0.59254
640.27400,0.61071
638.34546,0.62866
636.41692,0.64055
634.48839,0.64732
632.55985,0.65112
630.63131,0.65308
628.70278,0.65386
626.77424,0.65374
624.84571,0.65288
622.91717,0.65122
620.98863,0.64887
619.06010,0.64639
617.13156,0.64562
615.20303,0.64682
613.27449,0.64631
611.34595,0.64231
609.41742,0.63691
607.48888,0.63163
605.56035,0.62645
603.63181,0.62129
601.70327,0.61567
599.77474,0.60856
597.84620,0.59964
595.91766,0.58881
593.98913,0.57616
592.06059,0.56551
590.13206,0.56768
588.20352,0.59002
586.27498,0.62715
584.34645,0.66355
582.41791,0.68586
580.48938,0.69430
578.56084,0.69502
576.63230,0.69209
574.70377,0.68771
572.77523,0.68368
570.84669,0.68015
568.91816,0.67669
566.98962,0.67353
565.06109,0.67089
563.13255,0.66866
561.20401,0.66665
559.27548,0.66471
557.34694,0.66291
555.41841,0.66129
553.48987,0.65978
551.56133,0.65850
549.63280,0.65737
547.70426,0.65620
545.77573,0.65494
543.84719,0.65369
541.91865,0.65263
539.99012,0.65181
538.06158,0.65122
536.13304,0.65060
534.20451,0.64988
532.27597,0.64932
530.34744,0.64893
528.41890,0.64852
526.49036,0.64812
524.56183,0.64783
522.63329,0.64770
520.70476,0.64776
518.77622,0.64838
516.84768,0.65006
514.91915,0.65187
512.99061,0.65216
511.06207,0.64922
509.13354,0.63746
507.20500,0.61028
505.27647,0.57883
503.34793,0.56700
501.41939,0.58086
499.49086,0.59996
497.56232,0.60706
495.63379,0.60149
493.70525,0.59090
491.77671,0.58603
489.84818,0.59084
487.91964,0.60041
485.99110,0.61056
484.06257,0.61908
482.13403,0.62439
480.20550,0.62776
478.27696,0.63058
476.34842,0.63254
474.41989,0.63441
472.49135,0.63781
470.56282,0.64140
468.63428,0.64325
466.70574,0.64433
464.77721,0.64539
462.84867,0.64632
460.92014,0.64683
458.99160,0.64683
457.06306,0.64705
455.13453,0.64714
453.20599,0.64382
451.27745,0.63530
449.34892,0.62865
447.42038,0.63211
445.49185,0.64101
443.56331,0.64281
441.63477,0.63700
439.70624,0.63337
437.77770,0.63500
435.84917,0.63966
433.92063,0.64391
431.99209,0.64611
430.06356,0.64735
428.13502,0.64865
426.20648,0.64960
424.27795,0.64978
422.34941,0.64983
420.42088,0.64991
418.49234,0.64942
416.56380,0.64869
414.63527,0.64781
412.70673,0.64628
410.77820,0.64374
408.84966,0.64080
406.92112,0.63936
404.99259,0.64118
403.06405,0.64557
401.13552,0.64929
399.20698,0.64835
