3997.85540,0.90933
3995.92686,0.90918
3993.99833,0.90900
3992.06979,0.90890
3990.14125,0.90886
3988.21272,0.90890
3986.28418,0.90908
3984.35565,0.90926
3982.42711,0.90940
3980.49857,0.90960
3978.57004,0.90986
3976.64150,0.91002
3974.71297,0.91007
3972.78443,0.91012
3970.85589,0.91013
3968.92736,0.91015
3966.99882,0.91028
3965.07029,0.91045
3963.14175,0.91054
3961.21321,0.91054
3959.28468,0.91055
3957.35614,0.91060
3955.42760,0.91070
3953.49907,0.91075
3951.57053,0.91060
3949.64200,0.91027
3947.71346,0.91010
3945.78492,0.91024
3943.85639,0.91046
3941.92785,0.91054
3939.99932,0.91057
3938.07078,0.91067
3936.14224,0.91080
3934.21371,0.91097
3932.28517,0.91116
3930.35663,0.91120
3928.42810,0.91121
3926.49956,0.91124
3924.57103,0.91112
3922.64249,0.91108
3920.71395,0.91127
3918.78542,0.91137
3916.85688,0.91126
3914.92835,0.91118
3912.99981,0.91127
3911.07127,0.91138
3909.14274,0.91142
3907.21420,0.91147
3905.28566,0.91165
3903.35713,0.91196
3901.42859,0.91212
3899.50006,0.91205
3897.57152,0.91200
3895.64298,0.91208
3893.71445,0.91220
3891.78591,0.91209
3889.85738,0.91185
3887.92884,0.91186
3886.00030,0.91194
3884.07177,0.91185
3882.14323,0.91172
3880.21470,0.91160
3878.28616,0.91164
3876.35762,0.91176
3874.42909,0.91179
3872.50055,0.91185
3870.57201,0.91183
3868.64348,0.91160
3866.71494,0.91157
3864.78641,0.91166
3862.85787,0.91169
3860.92933,0.91177
3859.00080,0.91199
3857.07226,0.91245
3855.14373,0.91324
3853.21519,0.91328
3851.28665,0.91221
3849.35812,0.91190
3847.42958,0.91196
3845.50104,0.91211
3843.57251,0.91232
3841.64397,0.91248
3839.71544,0.91232
3837.78690,0.91170
3835.85836,0.91133
3833.92983,0.91133
3832.00129,0.91140
3830.07276,0.91140
3828.14422,0.91147
3826.21568,0.91170
3824.28715,0.91195
3822.35861,0.91204
3820.43008,0.91171
3818.50154,0.91142
3816.57300,0.91122
3814.64447,0.91097
3812.71593,0.91088
3810.78739,0.91081
3808.85886,0.91056
3806.93032,0.90997
3805.00179,0.90950
3803.07325,0.90938
3801.14471,0.90935
3799.21618,0.90954
3797.28764,0.90965
3795.35911,0.90963
3793.43057,0.90988
3791.50203,0.91035
3789.57350,0.91074
3787.64496,0.91097
3785.71642,0.91113
3783.78789,0.91131
3781.85935,0.91149
3779.93082,0.91154
3778.00228,0.91153
3776.07374,0.91166
3774.14521,0.91186
3772.21667,0.91202
3770.28814,0.91211
3768.35960,0.91223
3766.43106,0.91238
3764.50253,0.91253
3762.57399,0.91277
3760.64546,0.91304
3758.71692,0.91314
3756.78838,0.91321
3754.85985,0.91348
3752.93131,0.91387
3751.00277,0.91419
3749.07424,0.91431
3747.14570,0.91440
3745.21717,0.91415
3743.28863,0.91369
3741.36009,0.91380
3739.43156,0.91427
3737.50302,0.91468
3735.57449,0.91452
3733.64595,0.91397
3731.71741,0.91389
3729.78888,0.91408
3727.86034,0.91427
3725.93180,0.91441
3724.00327,0.91444
3722.07473,0.91423
3720.14620,0.91404
3718.21766,0.91420
3716.28912,0.91460
3714.36059,0.91508
3712.43205,0.91550
3710.50352,0.91545
3708.57498,0.91516
3706.64644,0.91512
3704.71791,0.91519
3702.78937,0.91525
3700.86084,0.91522
3698.93230,0.91518
3697.00376,0.91513
3695.07523,0.91499
3693.14669,0.91489
3691.21815,0.91484
3689.28962,0.91457
3687.36108,0.91462
3685.43255,0.91504
3683.50401,0.91540
3681.57547,0.91566
3679.64694,0.91594
3677.71840,0.91628
3675.78987,0.91624
3673.86133,0.91592
3671.93279,0.91601
3670.00426,0.91600
3668.07572,0.91588
3666.14718,0.91597
3664.21865,0.91608
3662.29011,0.91617
3660.36158,0.91629
3658.43304,0.91636
3656.50450,0.91619
3654.57597,0.91605
3652.64743,0.91618
3650.71890,0.91646
3648.79036,0.91640
3646.86182,0.91594
3644.93329,0.91578
3643.00475,0.91577
3641.07622,0.91586
3639.14768,0.91605
3637.21914,0.91617
3635.29061,0.91611
3633.36207,0.91607
3631.43353,0.91621
3629.50500,0.91614
3627.57646,0.91550
3625.64793,0.91536
3623.71939,0.91555
3621.79085,0.91581
3619.86232,0.91602
3617.93378,0.91598
3616.00525,0.91589
3614.07671,0.91590
3612.14817,0.91594
3610.21964,0.91594
3608.29110,0.91576
3606.36256,0.91551
3604.43403,0.91548
3602.50549,0.91561
3600.57696,0.91560
3598.64842,0.91536
3596.71988,0.91517
3594.79135,0.91509
3592.86281,0.91508
3590.93428,0.91526
3589.00574,0.91549
3587.07720,0.91551
3585.14867,0.91560
3583.22013,0.91583
3581.29160,0.91599
3579.36306,0.91615
3577.43452,0.91627
3575.50599,0.91618
3573.57745,0.91601
3571.64891,0.91604
3569.72038,0.91622
3567.79184,0.91635
3565.86331,0.91615
3563.93477,0.91582
3562.00623,0.91557
3560.07770,0.91542
3558.14916,0.91538
3556.22063,0.91542
3554.29209,0.91543
3552.36355,0.91535
3550.43502,0.91531
3548.50648,0.91533
3546.57794,0.91523
3544.64941,0.91498
3542.72087,0.91485
3540.79234,0.91488
3538.86380,0.91489
3536.93526,0.91469
3535.00673,0.91435
3533.07819,0.91423
3531.14966,0.91428
3529.22112,0.91421
3527.29258,0.91399
3525.36405,0.91388
3523.43551,0.91382
3521.50697,0.91377
3519.57844,0.91370
3517.64990,0.91346
3515.72137,0.91311
3513.79283,0.91288
3511.86429,0.91277
3509.93576,0.91261
3508.00722,0.91232
3506.07869,0.91200
3504.15015,0.91151
3502.22161,0.91077
3500.29308,0.91005
3498.36454,0.90955
3496.43601,0.90916
3494.50747,0.90881
3492.57893,0.90861
3490.65040,0.90862
3488.72186,0.90869
3486.79332,0.90872
3484.86479,0.90868
3482.93625,0.90843
3481.00772,0.90799
3479.07918,0.90758
3477.15064,0.90711
3475.22211,0.90628
3473.29357,0.90511
3471.36504,0.90373
3469.43650,0.90187
3467.50796,0.89899
3465.57943,0.89455
3463.65089,0.88750
3461.72235,0.87581
3459.79382,0.85867
3457.86528,0.83885
3455.93675,0.82318
3454.00821,0.81904
3452.07967,0.82678
3450.15114,0.84000
3448.22260,0.85375
3446.29407,0.86576
3444.36553,0.87434
3442.43699,0.88033
3440.50846,0.88489
3438.57992,0.88828
3436.65139,0.89087
3434.72285,0.89283
3432.79431,0.89430
3430.86578,0.89548
3428.93724,0.89651
3427.00870,0.89741
3425.08017,0.89824
3423.15163,0.89906
3421.22310,0.89990
3419.29456,0.90065
3417.36602,0.90122
3415.43749,0.90164
3413.50895,0.90197
3411.58042,0.90216
3409.65188,0.90219
3407.72334,0.90204
3405.79481,0.90175
3403.86627,0.90136
3401.93773,0.90094
3400.00920,0.90060
3398.08066,0.90030
3396.15213,0.89984
3394.22359,0.89911
3392.29505,0.89810
3390.36652,0.89677
3388.43798,0.89503
3386.50945,0.89263
3384.58091,0.88940
3382.65237,0.88523
3380.72384,0.87967
3378.79530,0.87113
3376.86677,0.85621
3374.93823,0.82971
3373.00969,0.78959
3371.08116,0.74838
3369.15262,0.73108
3367.22408,0.74949
3365.29555,0.78762
3363.36701,0.82280
3361.43848,0.84719
3359.50994,0.86286
3357.58140,0.87295
3355.65287,0.87965
3353.72433,0.88409
3351.79580,0.88706
3349.86726,0.88920
3347.93872,0.89076
3346.01019,0.89182
3344.08165,0.89265
3342.15311,0.89357
3340.22458,0.89476
3338.29604,0.89626
3336.36751,0.89791
3334.43897,0.89939
3332.51043,0.90056
3330.58190,0.90142
3328.65336,0.90221
3326.72483,0.90313
3324.79629,0.90392
3322.86775,0.90423
3320.93922,0.90423
3319.01068,0.90434
3317.08215,0.90471
3315.15361,0.90527
3313.22507,0.90591
3311.29654,0.90651
3309.36800,0.90707
3307.43946,0.90754
3305.51093,0.90785
3303.58239,0.90792
3301.65386,0.90779
3299.72532,0.90778
3297.79678,0.90811
3295.86825,0.90857
3293.93971,0.90888
3292.01118,0.90896
3290.08264,0.90895
3288.15410,0.90905
3286.22557,0.90924
3284.29703,0.90935
3282.36849,0.90936
3280.43996,0.90939
3278.51142,0.90953
3276.58289,0.90975
3274.65435,0.90990
3272.72581,0.90989
3270.79728,0.90985
3268.86874,0.90980
3266.94021,0.90964
3265.01167,0.90944
3263.08313,0.90942
3261.15460,0.90959
3259.22606,0.90980
3257.29753,0.91001
3255.36899,0.91015
3253.44045,0.91021
3251.51192,0.91035
3249.58338,0.91061
3247.65484,0.91082
3245.72631,0.91083
3243.79777,0.91068
3241.86924,0.91054
3239.94070,0.91055
3238.01216,0.91070
3236.08363,0.91094
3234.15509,0.91108
3232.22656,0.91089
3230.29802,0.91043
3228.36948,0.90996
3226.44095,0.90963
3224.51241,0.90942
3222.58387,0.90934
3220.65534,0.90936
3218.72680,0.90917
3216.79827,0.90878
3214.86973,0.90842
3212.94119,0.90790
3211.01266,0.90730
3209.08412,0.90711
3207.15559,0.90719
3205.22705,0.90697
3203.29851,0.90641
3201.36998,0.90567
3199.44144,0.90488
3197.51290,0.90429
3195.58437,0.90408
3193.65583,0.90418
3191.72730,0.90443
3189.79876,0.90469
3187.87022,0.90486
3185.94169,0.90511
3184.01315,0.90575
3182.08462,0.90655
3180.15608,0.90715
3178.22754,0.90752
3176.29901,0.90778
3174.37047,0.90809
3172.44194,0.90848
3170.51340,0.90888
3168.58486,0.90925
3166.65633,0.90959
3164.72779,0.90986
3162.79925,0.91003
3160.87072,0.91023
3158.94218,0.91054
3157.01365,0.91098
3155.08511,0.91148
3153.15657,0.91175
3151.22804,0.91150
3149.29950,0.91078
3147.37097,0.91008
3145.44243,0.90977
3143.51389,0.90995
3141.58536,0.91061
3139.65682,0.91129
3137.72828,0.91142
3135.79975,0.91118
3133.87121,0.91109
3131.94268,0.91136
3130.01414,0.91171
3128.08560,0.91179
3126.15707,0.91170
3124.22853,0.91174
3122.30000,0.91196
3120.37146,0.91212
3118.44292,0.91204
3116.51439,0.91170
3114.58585,0.91120
3112.65732,0.91071
3110.72878,0.91024
3108.80024,0.90971
3106.87171,0.90906
3104.94317,0.90846
3103.01463,0.90815
3101.08610,0.90808
3099.15756,0.90799
3097.22903,0.90779
3095.30049,0.90760
3093.37195,0.90749
3091.44342,0.90743
3089.51488,0.90737
3087.58635,0.90736
3085.65781,0.90760
3083.72927,0.90797
3081.80074,0.90822
3079.87220,0.90828
3077.94366,0.90804
3076.01513,0.90731
3074.08659,0.90604
3072.15806,0.90425
3070.22952,0.90214
3068.30098,0.90018
3066.37245,0.89881
3064.44391,0.89806
3062.51538,0.89760
3060.58684,0.89717
3058.65830,0.89681
3056.72977,0.89676
3054.80123,0.89728
3052.87270,0.89835
3050.94416,0.89955
3049.01562,0.90055
3047.08709,0.90138
3045.15855,0.90201
3043.23001,0.90230
3041.30148,0.90222
3039.37294,0.90192
3037.44441,0.90184
3035.51587,0.90221
3033.58733,0.90251
3031.65880,0.90230
3029.73026,0.90175
3027.80173,0.90126
3025.87319,0.90100
3023.94465,0.90057
3022.01612,0.89977
3020.08758,0.89886
3018.15904,0.89771
3016.23051,0.89612
3014.30197,0.89418
3012.37344,0.89188
3010.44490,0.88917
3008.51636,0.88628
3006.58783,0.88380
3004.65929,0.88202
3002.73076,0.88074
3000.80222,0.88006
2998.87368,0.88017
2996.94515,0.88065
2995.01661,0.88128
2993.08808,0.88203
2991.15954,0.88231
2989.23100,0.88182
2987.30247,0.88102
2985.37393,0.88032
2983.44539,0.87968
2981.51686,0.87845
2979.58832,0.87576
2977.65979,0.87150
2975.73125,0.86613
2973.80271,0.85945
2971.87418,0.85117
2969.94564,0.84192
2968.01711,0.83248
2966.08857,0.82326
2964.16003,0.81454
2962.23150,0.80628
2960.30296,0.79849
2958.37442,0.79195
2956.44589,0.78756
2954.51735,0.78578
2952.58882,0.78625
2950.66028,0.78814
2948.73174,0.79068
2946.80321,0.79289
2944.87467,0.79360
2942.94614,0.79200
2941.01760,0.78794
2939.08906,0.78189
2937.16053,0.77442
2935.23199,0.76594
2933.30346,0.75703
2931.37492,0.74823
2929.44638,0.73968
2927.51785,0.73181
2925.58931,0.72585
2923.66077,0.72292
2921.73224,0.72336
2919.80370,0.72673
2917.87517,0.73190
2915.94663,0.73769
2914.01809,0.74339
2912.08956,0.74856
2910.16102,0.75297
2908.23249,0.75674
2906.30395,0.76033
2904.37541,0.76394
2902.44688,0.76755
2900.51834,0.77121
2898.58980,0.77494
2896.66127,0.77828
2894.73273,0.78071
2892.80420,0.78238
2890.87566,0.78388
2888.94712,0.78559
2887.01859,0.78745
2885.09005,0.78921
2883.16152,0.79043
2881.23298,0.79064
2879.30444,0.78966
2877.37591,0.78779
2875.44737,0.78575
2873.51883,0.78439
2871.59030,0.78435
2869.66176,0.78571
2867.73323,0.78782
2865.80469,0.78957
2863.87615,0.78997
2861.94762,0.78869
2860.01908,0.78571
2858.09055,0.78138
2856.16201,0.77685
2854.23347,0.77390
2852.30494,0.77418
2850.37640,0.77839
2848.44787,0.78577
2846.51933,0.79478
2844.59079,0.80428
2842.66226,0.81392
2840.73372,0.82342
2838.80518,0.83223
2836.87665,0.83970
2834.94811,0.84561
2833.01958,0.84997
2831.09104,0.85275
2829.16250,0.85397
2827.23397,0.85375
2825.30543,0.85216
2823.37690,0.84920
2821.44836,0.84494
2819.51982,0.83978
2817.59129,0.83454
2815.66275,0.83022
2813.73421,0.82759
2811.80568,0.82667
2809.87714,0.82679
2807.94861,0.82728
2806.02007,0.82803
2804.09153,0.82934
2802.16300,0.83173
2800.23446,0.83557
2798.30593,0.84046
2796.37739,0.84550
2794.44885,0.85013
2792.52032,0.85438
2790.59178,0.85831
2788.66325,0.86186
2786.73471,0.86502
2784.80617,0.86783
2782.87764,0.87034
2780.94910,0.87253
2779.02056,0.87446
2777.09203,0.87621
2775.16349,0.87776
2773.23496,0.87891
2771.30642,0.87962
2769.37788,0.88010
2767.44935,0.88057
2765.52081,0.88110
2763.59228,0.88186
2761.66374,0.88296
2759.73520,0.88428
2757.80667,0.88561
2755.87813,0.88681
2753.94959,0.88791
2752.02106,0.88897
2750.09252,0.88993
2748.16399,0.89067
2746.23545,0.89112
2744.30691,0.89140
2742.37838,0.89168
2740.44984,0.89206
2738.52131,0.89245
2736.59277,0.89270
2734.66423,0.89277
2732.73570,0.89277
2730.80716,0.89280
2728.87863,0.89296
2726.95009,0.89317
2725.02155,0.89312
2723.09302,0.89278
2721.16448,0.89232
2719.23594,0.89194
2717.30741,0.89178
2715.37887,0.89184
2713.45034,0.89210
2711.52180,0.89261
2709.59326,0.89322
2707.66473,0.89375
2705.73619,0.89426
2703.80766,0.89479
2701.87912,0.89530
2699.95058,0.89577
2698.02205,0.89621
2696.09351,0.89655
2694.16497,0.89681
2692.23644,0.89703
2690.30790,0.89724
2688.37937,0.89740
2686.45083,0.89752
2684.52229,0.89767
2682.59376,0.89797
2680.66522,0.89828
2678.73669,0.89836
2676.80815,0.89817
2674.87961,0.89778
2672.95108,0.89730
2671.02254,0.89690
2669.09401,0.89675
2667.16547,0.89681
2665.23693,0.89690
2663.30840,0.89696
2661.37986,0.89709
2659.45132,0.89733
2657.52279,0.89766
2655.59425,0.89807
2653.66572,0.89850
2651.73718,0.89884
2649.80864,0.89908
2647.88011,0.89923
2645.95157,0.89938
2644.02304,0.89956
2642.09450,0.89978
2640.16596,0.90006
2638.23743,0.90040
2636.30889,0.90078
2634.38035,0.90121
2632.45182,0.90162
2630.52328,0.90202
2628.59475,0.90245
2626.66621,0.90284
2624.73767,0.90312
2622.80914,0.90330
2620.88060,0.90339
2618.95207,0.90332
2617.02353,0.90311
2615.09499,0.90288
2613.16646,0.90272
2611.23792,0.90269
2609.30939,0.90278
2607.38085,0.90288
2605.45231,0.90291
2603.52378,0.90292
2601.59524,0.90298
2599.66670,0.90310
2597.73817,0.90329
2595.80963,0.90354
2593.88110,0.90383
2591.95256,0.90410
2590.02402,0.90432
2588.09549,0.90455
2586.16695,0.90483
2584.23842,0.90512
2582.30988,0.90533
2580.38134,0.90546
2578.45281,0.90560
2576.52427,0.90572
2574.59573,0.90570
2572.66720,0.90563
2570.73866,0.90574
2568.81013,0.90607
2566.88159,0.90653
2564.95305,0.90702
2563.02452,0.90750
2561.09598,0.90788
2559.16745,0.90808
2557.23891,0.90820
2555.31037,0.90833
2553.38184,0.90850
2551.45330,0.90870
2549.52476,0.90889
2547.59623,0.90904
2545.66769,0.90907
2543.73916,0.90910
2541.81062,0.90932
2539.88208,0.90966
2537.95355,0.90992
2536.02501,0.91013
2534.09648,0.91031
2532.16794,0.91042
2530.23940,0.91049
2528.31087,0.91059
2526.38233,0.91066
2524.45380,0.91071
2522.52526,0.91080
2520.59672,0.91091
2518.66819,0.91096
2516.73965,0.91103
2514.81111,0.91118
2512.88258,0.91131
2510.95404,0.91137
2509.02551,0.91144
2507.09697,0.91162
2505.16843,0.91183
2503.23990,0.91196
2501.31136,0.91208
2499.38283,0.91222
2497.45429,0.91232
2495.52575,0.91239
2493.59722,0.91250
2491.66868,0.91260
2489.74014,0.91261
2487.81161,0.91254
2485.88307,0.91240
2483.95454,0.91225
2482.02600,0.91198
2480.09746,0.91157
2478.16893,0.91120
2476.24039,0.91089
2474.31186,0.91057
2472.38332,0.91025
2470.45478,0.91003
2468.52625,0.90991
2466.59771,0.90982
2464.66918,0.90969
2462.74064,0.90961
2460.81210,0.90970
2458.88357,0.90998
2456.95503,0.91032
2455.02649,0.91068
2453.09796,0.91106
2451.16942,0.91141
2449.24089,0.91182
2447.31235,0.91234
2445.38381,0.91288
2443.45528,0.91335
2441.52674,0.91365
2439.59821,0.91386
2437.66967,0.91411
2435.74113,0.91431
2433.81260,0.91440
2431.88406,0.91445
2429.95552,0.91448
2428.02699,0.91439
2426.09845,0.91416
2424.16992,0.91385
2422.24138,0.91344
2420.31284,0.91299
2418.38431,0.91264
2416.45577,0.91239
2414.52724,0.91217
2412.59870,0.91200
2410.67016,0.91192
2408.74163,0.91208
2406.81309,0.91240
2404.88456,0.91264
2402.95602,0.91261
2401.02748,0.91228
2399.09895,0.91181
2397.17041,0.91137
2395.24187,0.91108
2393.31334,0.91109
2391.38480,0.91140
2389.45627,0.91178
2387.52773,0.91209
2385.59919,0.91237
2383.67066,0.91259
2381.74212,0.91259
2379.81359,0.91234
2377.88505,0.91201
2375.95651,0.91169
2374.02798,0.91132
2372.09944,0.91086
2370.17090,0.91032
2368.24237,0.90961
2366.31383,0.90864
2364.38530,0.90755
2362.45676,0.90681
2360.52822,0.90667
2358.59969,0.90677
2356.67115,0.90721
2354.74262,0.90833
2352.81408,0.90967
2350.88554,0.91074
2348.95701,0.91136
2347.02847,0.91142
2345.09994,0.91103
2343.17140,0.91074
2341.24286,0.91063
2339.31433,0.91045
2337.38579,0.91043
2335.45725,0.91076
2333.52872,0.91131
2331.60018,0.91162
2329.67165,0.91145
2327.74311,0.91115
2325.81457,0.91110
2323.88604,0.91140
2321.95750,0.91217
2320.02897,0.91320
2318.10043,0.91400
2316.17189,0.91452
2314.24336,0.91493
2312.31482,0.91533
2310.38628,0.91573
2308.45775,0.91606
2306.52921,0.91628
2304.60068,0.91651
2302.67214,0.91687
2300.74360,0.91726
2298.81507,0.91751
2296.88653,0.91771
2294.95800,0.91800
2293.02946,0.91830
2291.10092,0.91852
2289.17239,0.91872
2287.24385,0.91902
2285.31532,0.91944
2283.38678,0.91987
2281.45824,0.92030
2279.52971,0.92078
2277.60117,0.92121
2275.67263,0.92153
2273.74410,0.92176
2271.81556,0.92186
2269.88703,0.92191
2267.95849,0.92203
2266.02995,0.92225
2264.10142,0.92243
2262.17288,0.92253
2260.24435,0.92253
2258.31581,0.92238
2256.38727,0.92224
2254.45874,0.92225
2252.53020,0.92223
2250.60166,0.92208
2248.67313,0.92197
2246.74459,0.92192
2244.81606,0.92175
2242.88752,0.92150
2240.95898,0.92131
2239.03045,0.92099
2237.10191,0.92062
2235.17338,0.92060
2233.24484,0.92089
2231.31630,0.92111
2229.38777,0.92124
2227.45923,0.92153
2225.53070,0.92209
2223.60216,0.92278
2221.67362,0.92333
2219.74509,0.92370
2217.81655,0.92398
2215.88801,0.92417
2213.95948,0.92440
2212.03094,0.92467
2210.10241,0.92490
2208.17387,0.92515
2206.24533,0.92533
2204.31680,0.92549
2202.38826,0.92582
2200.45973,0.92629
2198.53119,0.92675
2196.60265,0.92711
2194.67412,0.92718
2192.74558,0.92712
2190.81704,0.92723
2188.88851,0.92731
2186.95997,0.92726
2185.03144,0.92749
2183.10290,0.92803
2181.17436,0.92851
2179.24583,0.92879
2177.31729,0.92891
2175.38876,0.92891
2173.46022,0.92916
2171.53168,0.92957
2169.60315,0.92978
2167.67461,0.93006
2165.74607,0.93066
2163.81754,0.93137
2161.88900,0.93252
2159.96047,0.93444
2158.03193,0.93585
2156.10339,0.93566
2154.17486,0.93465
2152.24632,0.93360
2150.31779,0.93274
2148.38925,0.93225
2146.46071,0.93193
2144.53218,0.93153
2142.60364,0.93123
2140.67511,0.93117
2138.74657,0.93115
2136.81803,0.93101
2134.88950,0.93076
2132.96096,0.93052
2131.03242,0.93032
2129.10389,0.93012
2127.17535,0.93000
2125.24682,0.92989
2123.31828,0.92960
2121.38974,0.92916
2119.46121,0.92865
2117.53267,0.92793
2115.60414,0.92707
2113.67560,0.92640
2111.74706,0.92609
2109.81853,0.92598
2107.88999,0.92602
2105.96145,0.92632
2104.03292,0.92668
2102.10438,0.92688
2100.17585,0.92697
2098.24731,0.92703
2096.31877,0.92717
2094.39024,0.92740
2092.46170,0.92764
2090.53317,0.92781
2088.60463,0.92792
2086.67609,0.92799
2084.74756,0.92809
2082.81902,0.92832
2080.89049,0.92868
2078.96195,0.92896
2077.03341,0.92897
2075.10488,0.92890
2073.17634,0.92898
2071.24780,0.92921
2069.31927,0.92954
2067.39073,0.92981
2065.46220,0.92988
2063.53366,0.92992
2061.60512,0.93021
2059.67659,0.93080
2057.74805,0.93139
2055.81952,0.93172
2053.89098,0.93185
2051.96244,0.93206
2050.03391,0.93262
2048.10537,0.93346
2046.17683,0.93416
2044.24830,0.93474
2042.31976,0.93536
2040.39123,0.93577
2038.46269,0.93615
2036.53415,0.93678
2034.60562,0.93760
2032.67708,0.93828
2030.74855,0.93843
2028.82001,0.93824
2026.89147,0.93827
2024.96294,0.93875
2023.03440,0.93948
2021.10587,0.93991
2019.17733,0.93987
2017.24879,0.93991
2015.32026,0.94018
2013.39172,0.94014
2011.46318,0.94007
2009.53465,0.94037
2007.60611,0.94047
2005.67758,0.94006
2003.74904,0.93957
2001.82050,0.93933
1999.89197,0.93922
1997.96343,0.93927
1996.03490,0.93957
1994.10636,0.93976
1992.17782,0.93974
1990.24929,0.93981
1988.32075,0.94007
1986.39221,0.94041
1984.46368,0.94085
1982.53514,0.94136
1980.60661,0.94193
1978.67807,0.94271
1976.74953,0.94330
1974.82100,0.94320
1972.89246,0.94274
1970.96393,0.94273
1969.03539,0.94330
1967.10685,0.94362
1965.17832,0.94354
1963.24978,0.94343
1961.32125,0.94345
1959.39271,0.94347
1957.46417,0.94315
1955.53564,0.94248
1953.60710,0.94176
1951.67856,0.94124
1949.75003,0.94089
1947.82149,0.94071
1945.89296,0.94066
1943.96442,0.94041
1942.03588,0.93951
1940.10735,0.93837
1938.17881,0.93761
1936.25028,0.93690
1934.32174,0.93609
1932.39320,0.93537
1930.46467,0.93454
1928.53613,0.93315
1926.60759,0.93128
1924.67906,0.92941
1922.75052,0.92800
1920.82199,0.92785
1918.89345,0.92900
1916.96491,0.93067
1915.03638,0.93215
1913.10784,0.93337
1911.17931,0.93429
1909.25077,0.93458
1907.32223,0.93450
1905.39370,0.93452
1903.46516,0.93472
1901.53663,0.93515
1899.60809,0.93577
1897.67955,0.93653
1895.75102,0.93730
1893.82248,0.93797
1891.89394,0.93843
1889.96541,0.93865
1888.03687,0.93881
1886.10834,0.93895
1884.17980,0.93904
1882.25126,0.93900
1880.32273,0.93875
1878.39419,0.93836
1876.46566,0.93807
1874.53712,0.93807
1872.60858,0.93823
1870.68005,0.93838
1868.75151,0.93838
1866.82297,0.93849
1864.89444,0.93874
1862.96590,0.93891
1861.03737,0.93902
1859.10883,0.93912
1857.18029,0.93927
1855.25176,0.93950
1853.32322,0.93974
1851.39469,0.93988
1849.46615,0.93998
1847.53761,0.94011
1845.60908,0.94015
1843.68054,0.93984
1841.75200,0.93937
1839.82347,0.93899
1837.89493,0.93840
1835.96640,0.93753
1834.03786,0.93670
1832.10932,0.93614
1830.18079,0.93610
1828.25225,0.93652
1826.32372,0.93699
1824.39518,0.93740
1822.46664,0.93760
1820.53811,0.93756
1818.60957,0.93740
1816.68104,0.93736
1814.75250,0.93759
1812.82396,0.93805
1810.89543,0.93847
1808.96689,0.93861
1807.03835,0.93873
1805.10982,0.93901
1803.18128,0.93941
1801.25275,0.93993
1799.32421,0.94047
1797.39567,0.94088
1795.46714,0.94116
1793.53860,0.94143
1791.61007,0.94171
1789.68153,0.94191
1787.75299,0.94206
1785.82446,0.94231
1783.89592,0.94259
1781.96738,0.94280
1780.03885,0.94294
1778.11031,0.94306
1776.18178,0.94318
1774.25324,0.94313
1772.32470,0.94274
1770.39617,0.94219
1768.46763,0.94182
1766.53910,0.94160
1764.61056,0.94149
1762.68202,0.94140
1760.75349,0.94111
1758.82495,0.94053
1756.89642,0.93959
1754.96788,0.93859
1753.03934,0.93787
1751.11081,0.93710
1749.18227,0.93589
1747.25373,0.93457
1745.32520,0.93357
1743.39666,0.93276
1741.46813,0.93187
1739.53959,0.93061
1737.61105,0.92947
1735.68252,0.92914
1733.75398,0.92980
1731.82545,0.93069
1729.89691,0.93138
1727.96837,0.93214
1726.03984,0.93288
1724.11130,0.93359
1722.18276,0.93420
1720.25423,0.93479
1718.32569,0.93587
1716.39716,0.93756
1714.46862,0.93793
1712.54008,0.93777
1710.61155,0.93768
1708.68301,0.93770
1706.75448,0.93800
1704.82594,0.93869
1702.89740,0.93947
1700.96887,0.94055
1699.04033,0.94218
1697.11180,0.94333
1695.18326,0.94403
1693.25472,0.94441
1691.32619,0.94486
1689.39765,0.94560
1687.46911,0.94624
1685.54058,0.94679
1683.61204,0.94716
1681.68351,0.94673
1679.75497,0.94610
1677.82643,0.94549
1675.89790,0.94437
1673.96936,0.94224
1672.04083,0.93924
1670.11229,0.93137
1668.18375,0.91740
1666.25522,0.90446
1664.32668,0.88387
1662.39814,0.84284
1660.46961,0.80520
1658.54107,0.79136
1656.61254,0.79018
1654.68400,0.79801
1652.75546,0.82253
1650.82693,0.83765
1648.89839,0.84575
1646.96986,0.86503
1645.04132,0.88410
1643.11278,0.89170
1641.18425,0.89703
1639.25571,0.90165
1637.32718,0.90545
1635.39864,0.90832
1633.47010,0.90770
1631.54157,0.90534
1629.61303,0.90113
1627.68449,0.89462
1625.75596,0.88798
1623.82742,0.88038
1621.89889,0.87099
1619.97035,0.86313
1618.04181,0.85045
1616.11328,0.82205
1614.18474,0.79458
1612.25621,0.77127
1610.32767,0.73773
1608.39913,0.68472
1606.47060,0.61925
1604.54206,0.55419
1602.61352,0.49574
1600.68499,0.45694
1598.75645,0.44555
1596.82792,0.45800
1594.89938,0.49270
1592.97084,0.54096
1591.04231,0.59157
1589.11377,0.64021
1587.18524,0.68228
1585.25670,0.71600
1583.32816,0.74074
1581.39963,0.75345
1579.47109,0.75171
1577.54256,0.71887
1575.61402,0.63315
1573.68548,0.58218
1571.75695,0.58407
1569.82841,0.62812
1567.89987,0.69135
1565.97134,0.73143
1564.04280,0.75996
1562.11427,0.77951
1560.18573,0.79512
1558.25719,0.82937
1556.32866,0.84894
1554.40012,0.85557
1552.47159,0.86033
1550.54305,0.86322
1548.61451,0.86452
1546.68598,0.86508
1544.75744,0.86608
1542.82890,0.86853
1540.90037,0.87690
1538.97183,0.88418
1537.04330,0.88624
1535.11476,0.88654
1533.18622,0.88461
1531.25769,0.87970
1529.32915,0.87190
1527.40062,0.85537
1525.47208,0.82584
1523.54354,0.78238
1521.61501,0.68591
1519.68647,0.58943
1517.75793,0.54896
1515.82940,0.53523
1513.90086,0.54055
1511.97233,0.55265
1510.04379,0.56058
1508.11525,0.54274
1506.18672,0.48166
1504.25818,0.46453
1502.32965,0.46280
1500.40111,0.46119
1498.47257,0.45912
1496.54404,0.45393
1494.61550,0.44420
1492.68697,0.43005
1490.75843,0.39841
1488.82989,0.34110
1486.90136,0.31205
1484.97282,0.31318
1483.04428,0.32558
1481.11575,0.34694
1479.18721,0.37203
1477.25868,0.39826
1475.33014,0.42857
1473.40160,0.46543
1471.47307,0.49482
1469.54453,0.50455
1467.61600,0.50736
1465.68746,0.50849
1463.75892,0.51033
1461.83039,0.51434
1459.90185,0.51972
1457.97331,0.52982
1456.04478,0.54451
1454.11624,0.55259
1452.18771,0.56014
1450.25917,0.57180
1448.33063,0.59170
1446.40210,0.61560
1444.47356,0.63251
1442.54503,0.64102
1440.61649,0.64147
1438.68795,0.62959
1436.75942,0.59493
1434.83088,0.56165
1432.90235,0.55908
1430.97381,0.57624
1429.04527,0.60306
1427.11674,0.62581
1425.18820,0.64361
1423.25966,0.65927
1421.33113,0.66691
1419.40259,0.66340
1417.47406,0.66192
1415.54552,0.67589
1413.61698,0.69556
1411.68845,0.70993
1409.75991,0.70962
1407.83138,0.69667
1405.90284,0.68337
1403.97430,0.68363
1402.04577,0.69677
1400.11723,0.71514
1398.18869,0.73562
1396.26016,0.75299
1394.33162,0.76619
1392.40309,0.77487
1390.47455,0.77999
1388.54601,0.78305
1386.61748,0.78318
1384.68894,0.78050
1382.76041,0.77704
1380.83187,0.77324
1378.90333,0.77017
1376.97480,0.76940
1375.04626,0.77129
1373.11773,0.77329
1371.18919,0.77022
1369.26065,0.75796
1367.33212,0.73474
1365.40358,0.70339
1363.47504,0.65682
1361.54651,0.59998
1359.61797,0.56734
1357.68944,0.56085
1355.76090,0.57151
1353.83236,0.59384
1351.90383,0.61987
1349.97529,0.64572
1348.04676,0.66978
1346.11822,0.68987
1344.18968,0.70550
1342.26115,0.71731
1340.33261,0.72719
1338.40407,0.73590
1336.47554,0.74248
1334.54700,0.74869
1332.61847,0.75592
1330.68993,0.76376
1328.76139,0.77101
1326.83286,0.77643
1324.90432,0.77914
1322.97579,0.77883
1321.04725,0.77676
1319.11871,0.77590
1317.19018,0.77804
1315.26164,0.78070
1313.33311,0.77876
1311.40457,0.76648
1309.47603,0.74246
1307.54750,0.71386
1305.61896,0.69317
1303.69042,0.68456
1301.76189,0.68053
1299.83335,0.67360
1297.90482,0.66294
1295.97628,0.65342
1294.04774,0.65135
1292.11921,0.65968
1290.19067,0.67716
1288.26214,0.70006
1286.33360,0.72303
1284.40506,0.74203
1282.47653,0.75663
1280.54799,0.76788
1278.61945,0.77663
1276.69092,0.78354
1274.76238,0.78917
1272.83385,0.79407
1270.90531,0.79858
1268.97677,0.80271
1267.04824,0.80637
1265.11970,0.80948
1263.19117,0.81204
1261.26263,0.81400
1259.33409,0.81507
1257.40556,0.81505
1255.47702,0.81384
1253.54849,0.81130
1251.61995,0.80767
1249.69141,0.80356
1247.76288,0.79905
1245.83434,0.79305
1243.90580,0.78344
1241.97727,0.76767
1240.04873,0.74385
1238.12020,0.71256
1236.19166,0.67911
1234.26312,0.65229
1232.33459,0.63968
1230.40605,0.64390
1228.47752,0.66175
1226.54898,0.68694
1224.62044,0.71321
1222.69191,0.73615
1220.76337,0.75414
1218.83483,0.76711
1216.90630,0.77476
1214.97776,0.77654
1213.04923,0.77221
1211.12069,0.76255
1209.19215,0.74926
1207.26362,0.73532
1205.33508,0.72702
1203.40655,0.73129
1201.47801,0.74793
1199.54947,0.76922
1197.62094,0.78773
1195.69240,0.80119
1193.76387,0.81085
1191.83533,0.81813
1189.90679,0.82242
1187.97826,0.81906
1186.04972,0.79743
1184.12118,0.75263
1182.19265,0.70661
1180.26411,0.69229
1178.33558,0.70961
1176.40704,0.72836
1174.47850,0.72701
1172.54997,0.70541
1170.62143,0.67940
1168.69290,0.66833
1166.76436,0.67722
1164.83582,0.69346
1162.90729,0.70109
1160.97875,0.69081
1159.05021,0.65950
1157.12168,0.61194
1155.19314,0.56495
1153.26461,0.53951
1151.33607,0.54413
1149.40753,0.57049
1147.47900,0.60487
1145.55046,0.63815
1143.62193,0.66673
1141.69339,0.69022
1139.76485,0.70952
1137.83632,0.72572
1135.90778,0.73948
1133.97924,0.75058
1132.05071,0.75809
1130.12217,0.76070
1128.19364,0.75687
1126.26510,0.74563
1124.33656,0.72733
1122.40803,0.70502
1120.47949,0.68576
1118.55096,0.67698
1116.62242,0.68003
1114.69388,0.69000
1112.76535,0.70149
1110.83681,0.71160
1108.90828,0.71948
1106.97974,0.72616
1105.05120,0.73385
1103.12267,0.74411
1101.19413,0.75541
1099.26559,0.76157
1097.33706,0.75318
1095.40852,0.72867
1093.47999,0.70516
1091.55145,0.70223
1089.62291,0.71739
1087.69438,0.73453
1085.76584,0.74502
1083.83731,0.75013
1081.90877,0.75427
1079.98023,0.75979
1078.05170,0.76524
1076.12316,0.76794
1074.19462,0.76615
1072.26609,0.75852
1070.33755,0.74341
1068.40902,0.72032
1066.48048,0.69312
1064.55194,0.66869
1062.62341,0.64779
1060.69487,0.62221
1058.76634,0.58787
1056.83780,0.55526
1054.90926,0.53942
1052.98073,0.54448
1051.05219,0.56367
1049.12366,0.58880
1047.19512,0.61521
1045.26658,0.64071
1043.33805,0.66397
1041.40951,0.68425
1039.48097,0.70166
1037.55244,0.71651
1035.62390,0.72886
1033.69537,0.73851
1031.76683,0.74538
1029.83829,0.74963
1027.90976,0.75166
1025.98122,0.75226
1024.05269,0.75217
1022.12415,0.75184
1020.19561,0.75172
1018.26708,0.75227
1016.33854,0.75323
1014.41000,0.75321
1012.48147,0.75002
1010.55293,0.74108
1008.62440,0.72304
1006.69586,0.69279
1004.76732,0.65461
1002.83879,0.62599
1000.91025,0.62375
998.98172,0.64297
997.05318,0.66526
995.12464,0.68355
993.19611,0.70252
991.26757,0.72204
989.33904,0.73416
987.41050,0.72912
985.48196,0.69311
983.55343,0.61002
981.62489,0.49017
979.69635,0.38954
977.76782,0.36030
975.83928,0.39600
973.91075,0.45740
971.98221,0.51731
970.05367,0.56246
968.12514,0.58489
966.19660,0.58340
964.26807,0.56319
962.33953,0.52886
960.41099,0.48590
958.48246,0.45069
956.55392,0.44204
954.62538,0.46253
952.69685,0.49962
950.76831,0.53984
948.83978,0.57604
946.91124,0.60643
944.98270,0.63151
943.05417,0.65227
941.12563,0.66972
939.19710,0.68467
937.26856,0.69767
935.34002,0.70893
933.41149,0.71864
931.48295,0.72703
929.55442,0.73433
927.62588,0.74076
925.69734,0.74661
923.76881,0.75223
921.84027,0.75792
919.91173,0.76362
917.98320,0.76911
916.05466,0.77420
914.12613,0.77863
912.19759,0.78216
910.26905,0.78511
908.34052,0.78822
906.41198,0.79203
904.48345,0.79666
902.55491,0.80181
900.62637,0.80657
898.69784,0.80997
896.76930,0.81188
894.84076,0.81313
892.91223,0.81463
890.98369,0.81643
889.05516,0.81778
887.12662,0.81687
885.19808,0.80949
883.26955,0.78673
881.34101,0.73500
879.41248,0.64987
877.48394,0.55877
875.55540,0.50613
873.62687,0.50325
871.69833,0.52395
869.76980,0.54918
867.84126,0.57886
865.91272,0.60989
863.98419,0.63174
862.05565,0.63477
860.12711,0.61290
858.19858,0.57096
856.27004,0.52933
854.34151,0.50783
852.41297,0.51096
850.48443,0.53582
848.55590,0.57716
846.62736,0.62338
844.69883,0.66336
842.77029,0.69374
840.84175,0.71601
838.91322,0.73231
836.98468,0.74435
835.05614,0.75341
833.12761,0.76038
831.19907,0.76586
829.27054,0.77032
827.34200,0.77416
825.41346,0.77747
823.48493,0.78030
821.55639,0.78284
819.62786,0.78507
817.69932,0.78701
815.77078,0.78889
813.84225,0.79094
811.91371,0.79316
809.98517,0.79530
808.05664,0.79716
806.12810,0.79847
804.19957,0.79896
802.27103,0.79823
800.34249,0.79570
798.41396,0.79006
796.48542,0.77832
794.55689,0.75450
792.62835,0.70808
790.69981,0.63058
788.77128,0.53646
786.84274,0.46885
784.91421,0.46235
782.98567,0.51080
781.05713,0.58192
779.12860,0.64748
777.20006,0.69581
775.27152,0.72790
773.34299,0.74910
771.41445,0.76402
769.48592,0.77496
767.55738,0.78141
765.62884,0.78247
763.70031,0.78173
761.77177,0.78491
759.84324,0.79142
757.91470,0.79325
755.98616,0.77743
754.05763,0.72640
752.12909,0.63668
750.20055,0.53524
748.27202,0.45718
746.34348,0.42906
744.41495,0.46184
742.48641,0.53155
740.55787,0.59728
738.62934,0.63757
736.70080,0.64992
734.77227,0.64174
732.84373,0.63301
730.91519,0.64363
728.98666,0.67173
727.05812,0.70099
725.12959,0.72216
723.20105,0.73580
721.27251,0.74544
719.34398,0.75344
717.41544,0.76018
715.48690,0.76555
713.55837,0.76972
711.62983,0.77289
709.70130,0.77522
707.77276,0.77668
705.84422,0.77689
703.91569,0.77452
701.98715,0.76563
700.05862,0.74141
698.13008,0.69437
696.20154,0.62853
694.27301,0.55701
692.34447,0.50556
690.41593,0.50528
688.48740,0.55284
686.55886,0.60891
684.63033,0.64801
682.70179,0.67125
680.77325,0.68508
678.84472,0.69323
676.91618,0.69758
674.98765,0.69915
673.05911,0.69871
671.13057,0.69701
669.20204,0.69205
667.27350,0.68208
665.34497,0.67301
663.41643,0.66304
661.48789,0.64824
659.55936,0.62823
657.63082,0.60480
655.70228,0.58108
653.77375,0.55955
651.84521,0.54091
649.91668,0.53443
647.98814,0.55880
646.05960,0.61194
644.13107,0.66568
642.20253,0.69784
640.27400,0.70581
638.34546,0.69686
636.41692,0.67870
634.48839,0.65616
632.55985,0.63251
630.63131,0.60918
628.70278,0.58613
626.77424,0.56258
624.84571,0.53803
622.91717,0.51396
620.98863,0.49161
619.06010,0.47093
617.13156,0.45239
615.20303,0.43797
613.27449,0.42917
611.34595,0.42584
609.41742,0.42750
607.48888,0.43348
605.56035,0.44281
603.63181,0.45448
601.70327,0.46815
599.77474,0.48376
597.84620,0.50029
595.91766,0.51684
593.98913,0.53381
592.06059,0.55217
590.13206,0.57211
588.20352,0.59288
586.27498,0.61167
584.34645,0.62059
582.41791,0.61204
580.48938,0.58657
578.56084,0.55280
576.63230,0.51782
574.70377,0.48700
572.77523,0.46644
570.84669,0.45556
568.91816,0.45176
566.98962,0.45363
565.06109,0.45950
563.13255,0.46812
561.20401,0.47846
559.27548,0.48920
557.34694,0.49942
555.41841,0.50882
553.48987,0.51749
551.56133,0.52565
549.63280,0.53326
547.70426,0.54019
545.77573,0.54673
543.84719,0.55308
541.91865,0.55940
539.99012,0.56593
538.06158,0.57270
536.13304,0.57962
534.20451,0.58634
532.27597,0.59295
530.34744,0.59938
528.41890,0.60511
526.49036,0.61069
524.56183,0.61644
522.63329,0.62178
520.70476,0.62681
518.77622,0.63160
516.84768,0.63597
514.91915,0.63997
512.99061,0.64366
511.06207,0.64686
509.13354,0.64933
507.20500,0.65017
505.27647,0.64673
503.34793,0.63294
501.41939,0.60557
499.49086,0.58038
497.56232,0.57391
495.63379,0.58550
493.70525,0.60336
491.77671,0.61471
489.84818,0.61664
487.91964,0.61747
485.99110,0.62454
484.06257,0.63717
482.13403,0.64860
480.20550,0.65590
478.27696,0.66098
476.34842,0.66492
474.41989,0.66763
472.49135,0.66933
470.56282,0.66982
468.63428,0.66826
466.70574,0.66337
464.77721,0.65334
462.84867,0.63849
460.92014,0.62582
458.99160,0.62560
457.06306,0.64020
455.13453,0.65608
453.20599,0.66702
451.27745,0.67332
449.34892,0.67035
447.42038,0.65568
445.49185,0.64026
443.56331,0.64259
441.63477,0.65816
439.70624,0.66812
437.77770,0.67105
435.84917,0.67072
433.92063,0.66763
431.99209,0.66193
430.06356,0.65431
428.13502,0.64799
426.20648,0.64596
424.27795,0.64930
422.34941,0.65656
420.42088,0.66656
418.49234,0.67729
416.56380,0.67873
414.63527,0.67645
412.70673,0.67547
410.77820,0.67652
408.84966,0.67824
406.92112,0.67883
404.99259,0.67890
403.06405,0.67997
401.13552,0.68037
399.20698,0.67714
