3997.85540,0.95407
3995.92686,0.95413
3993.99833,0.95413
3992.06979,0.95412
3990.14125,0.95417
3988.21272,0.95423
3986.28418,0.95423
3984.35565,0.95422
3982.42711,0.95427
3980.49857,0.95433
3978.57004,0.95432
3976.64150,0.95431
3974.71297,0.95435
3972.78443,0.95437
3970.85589,0.95435
3968.92736,0.95431
3966.99882,0.95428
3965.07029,0.95424
3963.14175,0.95427
3961.21321,0.95436
3959.28468,0.95444
3957.35614,0.95445
3955.42760,0.95446
3953.49907,0.95448
3951.57053,0.95442
3949.64200,0.95421
3947.71346,0.95403
3945.78492,0.95409
3943.85639,0.95426
3941.92785,0.95432
3939.99932,0.95432
3938.07078,0.95431
3936.14224,0.95430
3934.21371,0.95433
3932.28517,0.95435
3930.35663,0.95434
3928.42810,0.95434
3926.49956,0.95436
3924.57103,0.95437
3922.64249,0.95445
3920.71395,0.95459
3918.78542,0.95458
3916.85688,0.95446
3914.92835,0.95449
3912.99981,0.95463
3911.07127,0.95474
3909.14274,0.95481
3907.21420,0.95484
3905.28566,0.95475
3903.35713,0.95462
3901.42859,0.95454
3899.50006,0.95447
3897.57152,0.95444
3895.64298,0.95448
3893.71445,0.95443
3891.78591,0.95419
3889.85738,0.95406
3887.92884,0.95414
3886.00030,0.95421
3884.07177,0.95424
3882.14323,0.95430
3880.21470,0.95429
3878.28616,0.95431
3876.35762,0.95439
3874.42909,0.95435
3872.50055,0.95420
3870.57201,0.95408
3868.64348,0.95414
3866.71494,0.95435
3864.78641,0.95446
3862.85787,0.95444
3860.92933,0.95456
3859.00080,0.95474
3857.07226,0.95478
3855.14373,0.95460
3853.21519,0.95442
3851.28665,0.95457
3849.35812,0.95481
3847.42958,0.95501
3845.50104,0.95512
3843.57251,0.95509
3841.64397,0.95508
3839.71544,0.95515
3837.78690,0.95508
3835.85836,0.95494
3833.92983,0.95487
3832.00129,0.95480
3830.07276,0.95484
3828.14422,0.95500
3826.21568,0.95506
3824.28715,0.95504
3822.35861,0.95503
3820.43008,0.95503
3818.50154,0.95517
3816.57300,0.95524
3814.64447,0.95514
3812.71593,0.95515
3810.78739,0.95524
3808.85886,0.95520
3806.93032,0.95506
3805.00179,0.95516
3803.07325,0.95542
3801.14471,0.95529
3799.21618,0.95504
3797.28764,0.95505
3795.35911,0.95517
3793.43057,0.95534
3791.50203,0.95547
3789.57350,0.95548
3787.64496,0.95542
3785.71642,0.95535
3783.78789,0.95540
3781.85935,0.95560
3779.93082,0.95568
3778.00228,0.95553
3776.07374,0.95546
3774.14521,0.95563
3772.21667,0.95585
3770.28814,0.95576
3768.35960,0.95551
3766.43106,0.95548
3764.50253,0.95555
3762.57399,0.95563
3760.64546,0.95574
3758.71692,0.95584
3756.78838,0.95590
3754.85985,0.95595
3752.93131,0.95598
3751.00277,0.95591
3749.07424,0.95590
3747.14570,0.95600
3745.21717,0.95591
3743.28863,0.95576
3741.36009,0.95596
3739.43156,0.95627
3737.50302,0.95637
3735.57449,0.95603
3733.64595,0.95553
3731.71741,0.95544
3729.78888,0.95555
3727.86034,0.95566
3725.93180,0.95579
3724.00327,0.95597
3722.07473,0.95614
3720.14620,0.95623
3718.21766,0.95630
3716.28912,0.95640
3714.36059,0.95642
3712.43205,0.95618
3710.50352,0.95581
3708.57498,0.95579
3706.64644,0.95603
3704.71791,0.95628
3702.78937,0.95635
3700.86084,0.95630
3698.93230,0.95642
3697.00376,0.95660
3695.07523,0.95670
3693.14669,0.95669
3691.21815,0.95649
3689.28962,0.95611
3687.36108,0.95592
3685.43255,0.95595
3683.50401,0.95605
3681.57547,0.95616
3679.64694,0.95622
3677.71840,0.95620
3675.78987,0.95596
3673.86133,0.95578
3671.93279,0.95586
3670.00426,0.95598
3668.07572,0.95608
3666.14718,0.95614
3664.21865,0.95617
3662.29011,0.95623
3660.36158,0.95632
3658.43304,0.95635
3656.50450,0.95613
3654.57597,0.95584
3652.64743,0.95580
3650.71890,0.95580
3648.79036,0.95564
3646.86182,0.95561
3644.93329,0.95581
3643.00475,0.95599
3641.07622,0.95602
3639.14768,0.95597
3637.21914,0.95599
3635.29061,0.95605
3633.36207,0.95620
3631.43353,0.95648
3629.50500,0.95650
3627.57646,0.95605
3625.64793,0.95586
3623.71939,0.95590
3621.79085,0.95584
3619.86232,0.95560
3617.93378,0.95545
3616.00525,0.95556
3614.07671,0.95565
3612.14817,0.95562
3610.21964,0.95558
3608.29110,0.95551
3606.36256,0.95550
3604.43403,0.95560
3602.50549,0.95559
3600.57696,0.95543
3598.64842,0.95543
3596.71988,0.95564
3594.79135,0.95574
3592.86281,0.95564
3590.93428,0.95555
3589.00574,0.95546
3587.07720,0.95529
3585.14867,0.95525
3583.22013,0.95535
3581.29160,0.95541
3579.36306,0.95534
3577.43452,0.95513
3575.50599,0.95491
3573.57745,0.95484
3571.64891,0.95485
3569.72038,0.95484
3567.79184,0.95467
3565.86331,0.95439
3563.93477,0.95426
3562.00623,0.95421
3560.07770,0.95416
3558.14916,0.95411
3556.22063,0.95410
3554.29209,0.95407
3552.36355,0.95394
3550.43502,0.95379
3548.50648,0.95368
3546.57794,0.95361
3544.64941,0.95355
3542.72087,0.95348
3540.79234,0.95343
3538.86380,0.95333
3536.93526,0.95319
3535.00673,0.95310
3533.07819,0.95305
3531.14966,0.95294
3529.22112,0.95282
3527.29258,0.95275
3525.36405,0.95269
3523.43551,0.95261
3521.50697,0.95256
3519.57844,0.95248
3517.64990,0.95240
3515.72137,0.95235
3513.79283,0.95230
3511.86429,0.95228
3509.93576,0.95221
3508.00722,0.95214
3506.07869,0.95214
3504.15015,0.95213
3502.22161,0.95206
3500.29308,0.95193
3498.36454,0.95171
3496.43601,0.95149
3494.50747,0.95141
3492.57893,0.95147
3490.65040,0.95155
3488.72186,0.95156
3486.79332,0.95152
3484.86479,0.95144
3482.93625,0.95129
3481.00772,0.95113
3479.07918,0.95108
3477.15064,0.95110
3475.22211,0.95105
3473.29357,0.95091
3471.36504,0.95076
3469.43650,0.95062
3467.50796,0.95051
3465.57943,0.95049
3463.65089,0.95052
3461.72235,0.95049
3459.79382,0.95035
3457.86528,0.95013
3455.93675,0.94990
3454.00821,0.94978
3452.07967,0.94975
3450.15114,0.94966
3448.22260,0.94950
3446.29407,0.94939
3444.36553,0.94940
3442.43699,0.94940
3440.50846,0.94938
3438.57992,0.94937
3436.65139,0.94934
3434.72285,0.94924
3432.79431,0.94908
3430.86578,0.94892
3428.93724,0.94884
3427.00870,0.94883
3425.08017,0.94876
3423.15163,0.94863
3421.22310,0.94847
3419.29456,0.94837
3417.36602,0.94834
3415.43749,0.94822
3413.50895,0.94799
3411.58042,0.94781
3409.65188,0.94776
3407.72334,0.94766
3405.79481,0.94743
3403.86627,0.94722
3401.93773,0.94715
3400.00920,0.94716
3398.08066,0.94714
3396.15213,0.94707
3394.22359,0.94699
3392.29505,0.94688
3390.36652,0.94680
3388.43798,0.94683
3386.50945,0.94691
3384.58091,0.94697
3382.65237,0.94696
3380.72384,0.94689
3378.79530,0.94683
3376.86677,0.94686
3374.93823,0.94694
3373.00969,0.94698
3371.08116,0.94696
3369.15262,0.94697
3367.22408,0.94704
3365.29555,0.94712
3363.36701,0.94714
3361.43848,0.94710
3359.50994,0.94709
3357.58140,0.94719
3355.65287,0.94733
3353.72433,0.94744
3351.79580,0.94752
3349.86726,0.94757
3347.93872,0.94766
3346.01019,0.94779
3344.08165,0.94785
3342.15311,0.94784
3340.22458,0.94786
3338.29604,0.94798
3336.36751,0.94811
3334.43897,0.94819
3332.51043,0.94833
3330.58190,0.94852
3328.65336,0.94863
3326.72483,0.94861
3324.79629,0.94858
3322.86775,0.94857
3320.93922,0.94861
3319.01068,0.94878
3317.08215,0.94901
3315.15361,0.94914
3313.22507,0.94918
3311.29654,0.94923
3309.36800,0.94932
3307.43946,0.94936
3305.51093,0.94932
3303.58239,0.94932
3301.65386,0.94939
3299.72532,0.94949
3297.79678,0.94963
3295.86825,0.94977
3293.93971,0.94984
3292.01118,0.94983
3290.08264,0.94979
3288.15410,0.94980
3286.22557,0.94983
3284.29703,0.94981
3282.36849,0.94974
3280.43996,0.94971
3278.51142,0.94979
3276.58289,0.94993
3274.65435,0.95004
3272.72581,0.95006
3270.79728,0.95002
3268.86874,0.94996
3266.94021,0.94996
3265.01167,0.94999
3263.08313,0.94996
3261.15460,0.94992
3259.22606,0.94999
3257.29753,0.95016
3255.36899,0.95032
3253.44045,0.95044
3251.51192,0.95059
3249.58338,0.95079
3247.65484,0.95095
3245.72631,0.95095
3243.79777,0.95091
3241.86924,0.95095
3239.94070,0.95101
3238.01216,0.95109
3236.08363,0.95126
3234.15509,0.95138
3232.22656,0.95135
3230.29802,0.95128
3228.36948,0.95127
3226.44095,0.95131
3224.51241,0.95138
3222.58387,0.95147
3220.65534,0.95157
3218.72680,0.95164
3216.79827,0.95165
3214.86973,0.95170
3212.94119,0.95176
3211.01266,0.95174
3209.08412,0.95171
3207.15559,0.95180
3205.22705,0.95196
3203.29851,0.95210
3201.36998,0.95218
3199.44144,0.95223
3197.51290,0.95224
3195.58437,0.95224
3193.65583,0.95230
3191.72730,0.95241
3189.79876,0.95252
3187.87022,0.95259
3185.94169,0.95260
3184.01315,0.95253
3182.08462,0.95248
3180.15608,0.95252
3178.22754,0.95257
3176.29901,0.95254
3174.37047,0.95241
3172.44194,0.95234
3170.51340,0.95240
3168.58486,0.95248
3166.65633,0.95250
3164.72779,0.95249
3162.79925,0.95250
3160.87072,0.95256
3158.94218,0.95275
3157.01365,0.95302
3155.08511,0.95322
3153.15657,0.95329
3151.22804,0.95329
3149.29950,0.95332
3147.37097,0.95339
3145.44243,0.95342
3143.51389,0.95344
3141.58536,0.95356
3139.65682,0.95372
3137.72828,0.95379
3135.79975,0.95381
3133.87121,0.95395
3131.94268,0.95411
3130.01414,0.95407
3128.08560,0.95392
3126.15707,0.95385
3124.22853,0.95389
3122.30000,0.95400
3120.37146,0.95412
3118.44292,0.95419
3116.51439,0.95414
3114.58585,0.95398
3112.65732,0.95386
3110.72878,0.95395
3108.80024,0.95412
3106.87171,0.95417
3104.94317,0.95414
3103.01463,0.95415
3101.08610,0.95421
3099.15756,0.95424
3097.22903,0.95426
3095.30049,0.95432
3093.37195,0.95441
3091.44342,0.95442
3089.51488,0.95432
3087.58635,0.95421
3085.65781,0.95417
3083.72927,0.95415
3081.80074,0.95414
3079.87220,0.95410
3077.94366,0.95397
3076.01513,0.95379
3074.08659,0.95366
3072.15806,0.95356
3070.22952,0.95345
3068.30098,0.95336
3066.37245,0.95335
3064.44391,0.95337
3062.51538,0.95340
3060.58684,0.95344
3058.65830,0.95348
3056.72977,0.95355
3054.80123,0.95363
3052.87270,0.95370
3050.94416,0.95376
3049.01562,0.95380
3047.08709,0.95389
3045.15855,0.95407
3043.23001,0.95421
3041.30148,0.95419
3039.37294,0.95404
3037.44441,0.95390
3035.51587,0.95379
3033.58733,0.95354
3031.65880,0.95302
3029.73026,0.95229
3027.80173,0.95146
3025.87319,0.95049
3023.94465,0.94930
3022.01612,0.94793
3020.08758,0.94647
3018.15904,0.94483
3016.23051,0.94286
3014.30197,0.94057
3012.37344,0.93804
3010.44490,0.93520
3008.51636,0.93213
3006.58783,0.92923
3004.65929,0.92692
3002.73076,0.92537
3000.80222,0.92474
2998.87368,0.92493
2996.94515,0.92539
2995.01661,0.92570
2993.08808,0.92573
2991.15954,0.92516
2989.23100,0.92397
2987.30247,0.92248
2985.37393,0.92075
2983.44539,0.91849
2981.51686,0.91540
2979.58832,0.91139
2977.65979,0.90692
2975.73125,0.90276
2973.80271,0.89910
2971.87418,0.89576
2969.94564,0.89272
2968.01711,0.88978
2966.08857,0.88662
2964.16003,0.88305
2962.23150,0.87886
2960.30296,0.87418
2958.37442,0.86962
2956.44589,0.86584
2954.51735,0.86325
2952.58882,0.86186
2950.66028,0.86143
2948.73174,0.86165
2946.80321,0.86201
2944.87467,0.86178
2942.94614,0.86036
2941.01760,0.85746
2939.08906,0.85320
2937.16053,0.84800
2935.23199,0.84242
2933.30346,0.83717
2931.37492,0.83285
2929.44638,0.82981
2927.51785,0.82817
2925.58931,0.82794
2923.66077,0.82912
2921.73224,0.83162
2919.80370,0.83510
2917.87517,0.83901
2915.94663,0.84286
2914.01809,0.84635
2912.08956,0.84930
2910.16102,0.85189
2908.23249,0.85453
2906.30395,0.85743
2904.37541,0.86042
2902.44688,0.86338
2900.51834,0.86647
2898.58980,0.86989
2896.66127,0.87350
2894.73273,0.87711
2892.80420,0.88059
2890.87566,0.88389
2888.94712,0.88689
2887.01859,0.88937
2885.09005,0.89107
2883.16152,0.89190
2881.23298,0.89186
2879.30444,0.89094
2877.37591,0.88924
2875.44737,0.88721
2873.51883,0.88536
2871.59030,0.88403
2869.66176,0.88332
2867.73323,0.88298
2865.80469,0.88242
2863.87615,0.88119
2861.94762,0.87917
2860.01908,0.87647
2858.09055,0.87349
2856.16201,0.87097
2854.23347,0.86976
2852.30494,0.87059
2850.37640,0.87393
2848.44787,0.87953
2846.51933,0.88646
2844.59079,0.89362
2842.66226,0.90013
2840.73372,0.90551
2838.80518,0.90960
2836.87665,0.91251
2834.94811,0.91474
2833.01958,0.91690
2831.09104,0.91926
2829.16250,0.92172
2827.23397,0.92415
2825.30543,0.92644
2823.37690,0.92846
2821.44836,0.93012
2819.51982,0.93142
2817.59129,0.93249
2815.66275,0.93343
2813.73421,0.93429
2811.80568,0.93507
2809.87714,0.93573
2807.94861,0.93622
2806.02007,0.93659
2804.09153,0.93701
2802.16300,0.93750
2800.23446,0.93799
2798.30593,0.93841
2796.37739,0.93879
2794.44885,0.93912
2792.52032,0.93940
2790.59178,0.93962
2788.66325,0.93978
2786.73471,0.93997
2784.80617,0.94031
2782.87764,0.94078
2780.94910,0.94128
2779.02056,0.94179
2777.09203,0.94233
2775.16349,0.94285
2773.23496,0.94319
2771.30642,0.94335
2769.37788,0.94351
2767.44935,0.94378
2765.52081,0.94404
2763.59228,0.94424
2761.66374,0.94443
2759.73520,0.94461
2757.80667,0.94479
2755.87813,0.94491
2753.94959,0.94493
2752.02106,0.94494
2750.09252,0.94508
2748.16399,0.94528
2746.23545,0.94545
2744.30691,0.94558
2742.37838,0.94572
2740.44984,0.94588
2738.52131,0.94602
2736.59277,0.94607
2734.66423,0.94600
2732.73570,0.94592
2730.80716,0.94594
2728.87863,0.94597
2726.95009,0.94593
2725.02155,0.94581
2723.09302,0.94574
2721.16448,0.94577
2719.23594,0.94584
2717.30741,0.94594
2715.37887,0.94606
2713.45034,0.94623
2711.52180,0.94648
2709.59326,0.94679
2707.66473,0.94708
2705.73619,0.94733
2703.80766,0.94750
2701.87912,0.94762
2699.95058,0.94773
2698.02205,0.94778
2696.09351,0.94776
2694.16497,0.94776
2692.23644,0.94779
2690.30790,0.94780
2688.37937,0.94779
2686.45083,0.94775
2684.52229,0.94766
2682.59376,0.94757
2680.66522,0.94753
2678.73669,0.94744
2676.80815,0.94723
2674.87961,0.94701
2672.95108,0.94690
2671.02254,0.94692
2669.09401,0.94699
2667.16547,0.94700
2665.23693,0.94687
2663.30840,0.94668
2661.37986,0.94653
2659.45132,0.94645
2657.52279,0.94648
2655.59425,0.94661
2653.66572,0.94677
2651.73718,0.94692
2649.80864,0.94710
2647.88011,0.94729
2645.95157,0.94745
2644.02304,0.94756
2642.09450,0.94764
2640.16596,0.94774
2638.23743,0.94781
2636.30889,0.94787
2634.38035,0.94797
2632.45182,0.94815
2630.52328,0.94838
2628.59475,0.94865
2626.66621,0.94883
2624.73767,0.94883
2622.80914,0.94878
2620.88060,0.94885
2618.95207,0.94899
2617.02353,0.94913
2615.09499,0.94933
2613.16646,0.94956
2611.23792,0.94974
2609.30939,0.94986
2607.38085,0.95001
2605.45231,0.95023
2603.52378,0.95042
2601.59524,0.95054
2599.66670,0.95062
2597.73817,0.95070
2595.80963,0.95075
2593.88110,0.95080
2591.95256,0.95085
2590.02402,0.95090
2588.09549,0.95103
2586.16695,0.95125
2584.23842,0.95152
2582.30988,0.95173
2580.38134,0.95183
2578.45281,0.95189
2576.52427,0.95195
2574.59573,0.95191
2572.66720,0.95182
2570.73866,0.95183
2568.81013,0.95195
2566.88159,0.95210
2564.95305,0.95218
2563.02452,0.95217
2561.09598,0.95215
2559.16745,0.95217
2557.23891,0.95223
2555.31037,0.95234
2553.38184,0.95246
2551.45330,0.95252
2549.52476,0.95254
2547.59623,0.95252
2545.66769,0.95255
2543.73916,0.95267
2541.81062,0.95278
2539.88208,0.95280
2537.95355,0.95288
2536.02501,0.95305
2534.09648,0.95321
2532.16794,0.95327
2530.23940,0.95326
2528.31087,0.95323
2526.38233,0.95318
2524.45380,0.95318
2522.52526,0.95327
2520.59672,0.95333
2518.66819,0.95332
2516.73965,0.95331
2514.81111,0.95340
2512.88258,0.95361
2510.95404,0.95369
2509.02551,0.95358
2507.09697,0.95347
2505.16843,0.95333
2503.23990,0.95316
2501.31136,0.95311
2499.38283,0.95313
2497.45429,0.95317
2495.52575,0.95324
2493.59722,0.95334
2491.66868,0.95341
2489.74014,0.95346
2487.81161,0.95355
2485.88307,0.95363
2483.95454,0.95366
2482.02600,0.95364
2480.09746,0.95361
2478.16893,0.95365
2476.24039,0.95378
2474.31186,0.95390
2472.38332,0.95398
2470.45478,0.95403
2468.52625,0.95403
2466.59771,0.95390
2464.66918,0.95367
2462.74064,0.95345
2460.81210,0.95331
2458.88357,0.95326
2456.95503,0.95319
2455.02649,0.95307
2453.09796,0.95297
2451.16942,0.95290
2449.24089,0.95285
2447.31235,0.95288
2445.38381,0.95302
2443.45528,0.95327
2441.52674,0.95361
2439.59821,0.95394
2437.66967,0.95414
2435.74113,0.95423
2433.81260,0.95429
2431.88406,0.95436
2429.95552,0.95441
2428.02699,0.95446
2426.09845,0.95452
2424.16992,0.95452
2422.24138,0.95448
2420.31284,0.95451
2418.38431,0.95461
2416.45577,0.95462
2414.52724,0.95459
2412.59870,0.95466
2410.67016,0.95479
2408.74163,0.95492
2406.81309,0.95496
2404.88456,0.95489
2402.95602,0.95485
2401.02748,0.95484
2399.09895,0.95476
2397.17041,0.95475
2395.24187,0.95480
2393.31334,0.95476
2391.38480,0.95467
2389.45627,0.95473
2387.52773,0.95486
2385.59919,0.95489
2383.67066,0.95477
2381.74212,0.95466
2379.81359,0.95467
2377.88505,0.95464
2375.95651,0.95449
2374.02798,0.95435
2372.09944,0.95429
2370.17090,0.95422
2368.24237,0.95419
2366.31383,0.95422
2364.38530,0.95401
2362.45676,0.95361
2360.52822,0.95344
2358.59969,0.95330
2356.67115,0.95296
2354.74262,0.95278
2352.81408,0.95301
2350.88554,0.95337
2348.95701,0.95355
2347.02847,0.95350
2345.09994,0.95317
2343.17140,0.95265
2341.24286,0.95241
2339.31433,0.95264
2337.38579,0.95323
2335.45725,0.95383
2333.52872,0.95394
2331.60018,0.95357
2329.67165,0.95314
2327.74311,0.95281
2325.81457,0.95249
2323.88604,0.95213
2321.95750,0.95176
2320.02897,0.95165
2318.10043,0.95182
2316.17189,0.95191
2314.24336,0.95175
2312.31482,0.95140
2310.38628,0.95068
2308.45775,0.94941
2306.52921,0.94766
2304.60068,0.94566
2302.67214,0.94359
2300.74360,0.94172
2298.81507,0.94039
2296.88653,0.93968
2294.95800,0.93948
2293.02946,0.93974
2291.10092,0.94051
2289.17239,0.94167
2287.24385,0.94308
2285.31532,0.94470
2283.38678,0.94644
2281.45824,0.94804
2279.52971,0.94931
2277.60117,0.95031
2275.67263,0.95130
2273.74410,0.95230
2271.81556,0.95306
2269.88703,0.95356
2267.95849,0.95396
2266.02995,0.95426
2264.10142,0.95439
2262.17288,0.95437
2260.24435,0.95424
2258.31581,0.95422
2256.38727,0.95448
2254.45874,0.95465
2252.53020,0.95437
2250.60166,0.95410
2248.67313,0.95411
2246.74459,0.95407
2244.81606,0.95405
2242.88752,0.95433
2240.95898,0.95481
2239.03045,0.95530
2237.10191,0.95572
2235.17338,0.95615
2233.24484,0.95667
2231.31630,0.95711
2229.38777,0.95730
2227.45923,0.95727
2225.53070,0.95724
2223.60216,0.95738
2221.67362,0.95752
2219.74509,0.95755
2217.81655,0.95777
2215.88801,0.95824
2213.95948,0.95852
2212.03094,0.95855
2210.10241,0.95854
2208.17387,0.95844
2206.24533,0.95842
2204.31680,0.95867
2202.38826,0.95902
2200.45973,0.95928
2198.53119,0.95929
2196.60265,0.95921
2194.67412,0.95934
2192.74558,0.95935
2190.81704,0.95917
2188.88851,0.95926
2186.95997,0.95965
2185.03144,0.95983
2183.10290,0.95991
2181.17436,0.96005
2179.24583,0.95997
2177.31729,0.95992
2175.38876,0.96030
2173.46022,0.96059
2171.53168,0.96014
2169.60315,0.95952
2167.67461,0.95957
2165.74607,0.95994
2163.81754,0.96016
2161.88900,0.96100
2159.96047,0.96296
2158.03193,0.96445
2156.10339,0.96419
2154.17486,0.96310
2152.24632,0.96234
2150.31779,0.96222
2148.38925,0.96249
2146.46071,0.96261
2144.53218,0.96232
2142.60364,0.96199
2140.67511,0.96197
2138.74657,0.96232
2136.81803,0.96281
2134.88950,0.96297
2132.96096,0.96267
2131.03242,0.96224
2129.10389,0.96187
2127.17535,0.96150
2125.24682,0.96115
2123.31828,0.96087
2121.38974,0.96059
2119.46121,0.96016
2117.53267,0.95947
2115.60414,0.95853
2113.67560,0.95749
2111.74706,0.95670
2109.81853,0.95657
2107.88999,0.95709
2105.96145,0.95792
2104.03292,0.95871
2102.10438,0.95925
2100.17585,0.95958
2098.24731,0.95982
2096.31877,0.95998
2094.39024,0.96010
2092.46170,0.96012
2090.53317,0.95988
2088.60463,0.95955
2086.67609,0.95951
2084.74756,0.95974
2082.81902,0.95990
2080.89049,0.95992
2078.96195,0.95990
2077.03341,0.95993
2075.10488,0.96003
2073.17634,0.96006
2071.24780,0.96011
2069.31927,0.96038
2067.39073,0.96074
2065.46220,0.96078
2063.53366,0.96060
2061.60512,0.96054
2059.67659,0.96048
2057.74805,0.96052
2055.81952,0.96085
2053.89098,0.96095
2051.96244,0.96066
2050.03391,0.96086
2048.10537,0.96160
2046.17683,0.96218
2044.24830,0.96268
2042.31976,0.96314
2040.39123,0.96353
2038.46269,0.96403
2036.53415,0.96458
2034.60562,0.96507
2032.67708,0.96526
2030.74855,0.96534
2028.82001,0.96585
2026.89147,0.96648
2024.96294,0.96673
2023.03440,0.96681
2021.10587,0.96703
2019.17733,0.96722
2017.24879,0.96734
2015.32026,0.96749
2013.39172,0.96746
2011.46318,0.96718
2009.53465,0.96701
2007.60611,0.96697
2005.67758,0.96658
2003.74904,0.96590
2001.82050,0.96530
1999.89197,0.96478
1997.96343,0.96458
1996.03490,0.96479
1994.10636,0.96496
1992.17782,0.96493
1990.24929,0.96475
1988.32075,0.96451
1986.39221,0.96423
1984.46368,0.96390
1982.53514,0.96366
1980.60661,0.96383
1978.67807,0.96460
1976.74953,0.96510
1974.82100,0.96488
1972.89246,0.96479
1970.96393,0.96517
1969.03539,0.96542
1967.10685,0.96520
1965.17832,0.96474
1963.24978,0.96460
1961.32125,0.96507
1959.39271,0.96554
1957.46417,0.96527
1955.53564,0.96462
1953.60710,0.96427
1951.67856,0.96420
1949.75003,0.96423
1947.82149,0.96432
1945.89296,0.96409
1943.96442,0.96347
1942.03588,0.96312
1940.10735,0.96325
1938.17881,0.96333
1936.25028,0.96318
1934.32174,0.96307
1932.39320,0.96310
1930.46467,0.96313
1928.53613,0.96313
1926.60759,0.96312
1924.67906,0.96301
1922.75052,0.96267
1920.82199,0.96246
1918.89345,0.96247
1916.96491,0.96237
1915.03638,0.96214
1913.10784,0.96205
1911.17931,0.96233
1909.25077,0.96276
1907.32223,0.96288
1905.39370,0.96272
1903.46516,0.96255
1901.53663,0.96256
1899.60809,0.96269
1897.67955,0.96265
1895.75102,0.96248
1893.82248,0.96239
1891.89394,0.96239
1889.96541,0.96241
1888.03687,0.96237
1886.10834,0.96226
1884.17980,0.96222
1882.25126,0.96231
1880.32273,0.96235
1878.39419,0.96220
1876.46566,0.96202
1874.53712,0.96200
1872.60858,0.96207
1870.68005,0.96208
1868.75151,0.96184
1866.82297,0.96152
1864.89444,0.96154
1862.96590,0.96179
1861.03737,0.96202
1859.10883,0.96216
1857.18029,0.96227
1855.25176,0.96236
1853.32322,0.96239
1851.39469,0.96237
1849.46615,0.96235
1847.53761,0.96234
1845.60908,0.96226
1843.68054,0.96216
1841.75200,0.96232
1839.82347,0.96259
1837.89493,0.96271
1835.96640,0.96265
1834.03786,0.96256
1832.10932,0.96243
1830.18079,0.96222
1828.25225,0.96203
1826.32372,0.96196
1824.39518,0.96195
1822.46664,0.96198
1820.53811,0.96208
1818.60957,0.96223
1816.68104,0.96228
1814.75250,0.96215
1812.82396,0.96203
1810.89543,0.96190
1808.96689,0.96176
1807.03835,0.96167
1805.10982,0.96159
1803.18128,0.96150
1801.25275,0.96142
1799.32421,0.96130
1797.39567,0.96115
1795.46714,0.96103
1793.53860,0.96094
1791.61007,0.96082
1789.68153,0.96077
1787.75299,0.96087
1785.82446,0.96102
1783.89592,0.96109
1781.96738,0.96106
1780.03885,0.96101
1778.11031,0.96100
1776.18178,0.96096
1774.25324,0.96080
1772.32470,0.96045
1770.39617,0.96010
1768.46763,0.95989
1766.53910,0.95974
1764.61056,0.95957
1762.68202,0.95931
1760.75349,0.95890
1758.82495,0.95843
1756.89642,0.95785
1754.96788,0.95729
1753.03934,0.95692
1751.11081,0.95651
1749.18227,0.95594
1747.25373,0.95544
1745.32520,0.95507
1743.39666,0.95469
1741.46813,0.95431
1739.53959,0.95394
1737.61105,0.95369
1735.68252,0.95358
1733.75398,0.95360
1731.82545,0.95369
1729.89691,0.95368
1727.96837,0.95362
1726.03984,0.95368
1724.11130,0.95393
1722.18276,0.95432
1720.25423,0.95476
1718.32569,0.95531
1716.39716,0.95589
1714.46862,0.95622
1712.54008,0.95648
1710.61155,0.95678
1708.68301,0.95709
1706.75448,0.95735
1704.82594,0.95764
1702.89740,0.95799
1700.96887,0.95838
1699.04033,0.95874
1697.11180,0.95884
1695.18326,0.95873
1693.25472,0.95860
1691.32619,0.95849
1689.39765,0.95833
1687.46911,0.95817
1685.54058,0.95793
1683.61204,0.95709
1681.68351,0.95619
1679.75497,0.95565
1677.82643,0.95527
1675.89790,0.95494
1673.96936,0.95466
1672.04083,0.95456
1670.11229,0.95456
1668.18375,0.95472
1666.25522,0.95496
1664.32668,0.95516
1662.39814,0.95528
1660.46961,0.95538
1658.54107,0.95548
1656.61254,0.95557
1654.68400,0.95557
1652.75546,0.95512
1650.82693,0.95476
1648.89839,0.95458
1646.96986,0.95400
1645.04132,0.95320
1643.11278,0.95245
1641.18425,0.95146
1639.25571,0.95003
1637.32718,0.94726
1635.39864,0.94163
1633.47010,0.93720
1631.54157,0.93575
1629.61303,0.93616
1627.68449,0.93850
1625.75596,0.94154
1623.82742,0.94398
1621.89889,0.94534
1619.97035,0.94557
1618.04181,0.94503
1616.11328,0.94385
1614.18474,0.94309
1612.25621,0.94293
1610.32767,0.94312
1608.39913,0.94379
1606.47060,0.94487
1604.54206,0.94602
1602.61352,0.94699
1600.68499,0.94775
1598.75645,0.94812
1596.82792,0.94766
1594.89938,0.94577
1592.97084,0.94195
1591.04231,0.93594
1589.11377,0.92780
1587.18524,0.91866
1585.25670,0.91026
1583.32816,0.90481
1581.39963,0.90415
1579.47109,0.90781
1577.54256,0.91547
1575.61402,0.92683
1573.68548,0.93469
1571.75695,0.93850
1569.82841,0.94123
1567.89987,0.94219
1565.97134,0.93993
1564.04280,0.93470
1562.11427,0.92852
1560.18573,0.92039
1558.25719,0.90812
1556.32866,0.90849
1554.40012,0.91757
1552.47159,0.92755
1550.54305,0.93560
1548.61451,0.94113
1546.68598,0.94405
1544.75744,0.94549
1542.82890,0.94644
1540.90037,0.94699
1538.97183,0.94717
1537.04330,0.94732
1535.11476,0.94705
1533.18622,0.94601
1531.25769,0.94486
1529.32915,0.94425
1527.40062,0.94400
1525.47208,0.94412
1523.54354,0.94452
1521.61501,0.94472
1519.68647,0.94458
1517.75793,0.94376
1515.82940,0.94201
1513.90086,0.93971
1511.97233,0.93660
1510.04379,0.93208
1508.11525,0.91758
1506.18672,0.87586
1504.25818,0.84083
1502.32965,0.81373
1500.40111,0.78389
1498.47257,0.75824
1496.54404,0.75372
1494.61550,0.76778
1492.68697,0.78088
1490.75843,0.78210
1488.82989,0.76178
1486.90136,0.73455
1484.97282,0.71974
1483.04428,0.71946
1481.11575,0.73290
1479.18721,0.75491
1477.25868,0.78046
1475.33014,0.80659
1473.40160,0.82812
1471.47307,0.83887
1469.54453,0.84063
1467.61600,0.83993
1465.68746,0.83916
1463.75892,0.83880
1461.83039,0.83819
1459.90185,0.83537
1457.97331,0.82197
1456.04478,0.79460
1454.11624,0.77591
1452.18771,0.76426
1450.25917,0.75668
1448.33063,0.75608
1446.40210,0.76358
1444.47356,0.77561
1442.54503,0.78873
1440.61649,0.79973
1438.68795,0.80578
1436.75942,0.80441
1434.83088,0.79698
1432.90235,0.79071
1430.97381,0.78933
1429.04527,0.79608
1427.11674,0.80831
1425.18820,0.82117
1423.25966,0.83182
1421.33113,0.83856
1419.40259,0.84428
1417.47406,0.85113
1415.54552,0.85662
1413.61698,0.85965
1411.68845,0.86032
1409.75991,0.86024
1407.83138,0.86142
1405.90284,0.86405
1403.97430,0.86741
1402.04577,0.87219
1400.11723,0.87955
1398.18869,0.88534
1396.26016,0.88042
1394.33162,0.86797
1392.40309,0.86447
1390.47455,0.87236
1388.54601,0.88369
1386.61748,0.89263
1384.68894,0.89707
1382.76041,0.89780
1380.83187,0.89527
1378.90333,0.89064
1376.97480,0.88583
1375.04626,0.88103
1373.11773,0.87568
1371.18919,0.87172
1369.26065,0.87172
1367.33212,0.87650
1365.40358,0.88394
1363.47504,0.89230
1361.54651,0.90116
1359.61797,0.90920
1357.68944,0.91563
1355.76090,0.92041
1353.83236,0.92414
1351.90383,0.92758
1349.97529,0.93058
1348.04676,0.93284
1346.11822,0.93471
1344.18968,0.93636
1342.26115,0.93746
1340.33261,0.93781
1338.40407,0.93767
1336.47554,0.93696
1334.54700,0.93483
1332.61847,0.92985
1330.68993,0.92028
1328.76139,0.90505
1326.83286,0.88447
1324.90432,0.85971
1322.97579,0.83214
1321.04725,0.80314
1319.11871,0.77608
1317.19018,0.75845
1315.26164,0.75451
1313.33311,0.76092
1311.40457,0.77210
1309.47603,0.78386
1307.54750,0.79431
1305.61896,0.80290
1303.69042,0.81023
1301.76189,0.81725
1299.83335,0.82411
1297.90482,0.83038
1295.97628,0.83603
1294.04774,0.84228
1292.11921,0.85014
1290.19067,0.85824
1288.26214,0.86292
1286.33360,0.86067
1284.40506,0.85079
1282.47653,0.83682
1280.54799,0.82506
1278.61945,0.81973
1276.69092,0.82029
1274.76238,0.82310
1272.83385,0.82404
1270.90531,0.82206
1268.97677,0.82134
1267.04824,0.82685
1265.11970,0.83886
1263.19117,0.85354
1261.26263,0.86712
1259.33409,0.87788
1257.40556,0.88498
1255.47702,0.88741
1253.54849,0.88462
1251.61995,0.87754
1249.69141,0.86844
1247.76288,0.86027
1245.83434,0.85607
1243.90580,0.85737
1241.97727,0.86292
1240.04873,0.86963
1238.12020,0.87447
1236.19166,0.87471
1234.26312,0.86747
1232.33459,0.85077
1230.40605,0.82574
1228.47752,0.79817
1226.54898,0.77704
1224.62044,0.77012
1222.69191,0.78005
1220.76337,0.80349
1218.83483,0.83285
1216.90630,0.85989
1214.97776,0.88029
1213.04923,0.89431
1211.12069,0.90370
1209.19215,0.90994
1207.26362,0.91423
1205.33508,0.91736
1203.40655,0.91948
1201.47801,0.92044
1199.54947,0.92021
1197.62094,0.91889
1195.69240,0.91632
1193.76387,0.91202
1191.83533,0.90589
1189.90679,0.89885
1187.97826,0.89242
1186.04972,0.88729
1184.12118,0.88270
1182.19265,0.87708
1180.26411,0.86894
1178.33558,0.85726
1176.40704,0.84175
1174.47850,0.82292
1172.54997,0.80302
1170.62143,0.78635
1168.69290,0.77745
1166.76436,0.77831
1164.83582,0.78648
1162.90729,0.79635
1160.97875,0.80290
1159.05021,0.80391
1157.12168,0.79952
1155.19314,0.79148
1153.26461,0.78194
1151.33607,0.77141
1149.40753,0.75751
1147.47900,0.73716
1145.55046,0.71062
1143.62193,0.68314
1141.69339,0.66252
1139.76485,0.65526
1137.83632,0.66308
1135.90778,0.68148
1133.97924,0.70300
1132.05071,0.72262
1130.12217,0.73906
1128.19364,0.75249
1126.26510,0.76306
1124.33656,0.77098
1122.40803,0.77693
1120.47949,0.78143
1118.55096,0.78315
1116.62242,0.78015
1114.69388,0.77428
1112.76535,0.77164
1110.83681,0.77771
1108.90828,0.79307
1106.97974,0.81370
1105.05120,0.83436
1103.12267,0.85148
1101.19413,0.86418
1099.26559,0.87292
1097.33706,0.87762
1095.40852,0.87743
1093.47999,0.87270
1091.55145,0.86701
1089.62291,0.86527
1087.69438,0.86868
1085.76584,0.87308
1083.83731,0.87265
1081.90877,0.86285
1079.98023,0.84004
1078.05170,0.80332
1076.12316,0.76068
1074.19462,0.73038
1072.26609,0.72928
1070.33755,0.75695
1068.40902,0.79642
1066.48048,0.83103
1064.55194,0.85494
1062.62341,0.86949
1060.69487,0.87722
1058.76634,0.87958
1056.83780,0.87711
1054.90926,0.86996
1052.98073,0.85829
1051.05219,0.84307
1049.12366,0.82691
1047.19512,0.81376
1045.26658,0.80682
1043.33805,0.80725
1041.40951,0.81518
1039.48097,0.82918
1037.55244,0.84506
1035.62390,0.85786
1033.69537,0.86448
1031.76683,0.86324
1029.83829,0.85300
1027.90976,0.83398
1025.98122,0.80952
1024.05269,0.78555
1022.12415,0.76685
1020.19561,0.75423
1018.26708,0.74569
1016.33854,0.73633
1014.41000,0.71567
1012.48147,0.67670
1010.55293,0.63253
1008.62440,0.60969
1006.69586,0.62148
1004.76732,0.65858
1002.83879,0.70387
1000.91025,0.74596
998.98172,0.78031
997.05318,0.80638
995.12464,0.82565
993.19611,0.84001
991.26757,0.85082
989.33904,0.85900
987.41050,0.86529
985.48196,0.87035
983.55343,0.87466
981.62489,0.87840
979.69635,0.88149
977.76782,0.88388
975.83928,0.88558
973.91075,0.88681
971.98221,0.88819
970.05367,0.89012
968.12514,0.89252
966.19660,0.89508
964.26807,0.89748
962.33953,0.89960
960.41099,0.90159
958.48246,0.90355
956.55392,0.90541
954.62538,0.90710
952.69685,0.90861
950.76831,0.91001
948.83978,0.91127
946.91124,0.91201
944.98270,0.91153
943.05417,0.90876
941.12563,0.90257
939.19710,0.89300
937.26856,0.88237
935.34002,0.87452
933.41149,0.87173
931.48295,0.87219
929.55442,0.87068
927.62588,0.86254
925.69734,0.84815
923.76881,0.83451
921.84027,0.82951
919.91173,0.83306
917.98320,0.83728
916.05466,0.83542
914.12613,0.82678
912.19759,0.81360
910.26905,0.79744
908.34052,0.77937
906.41198,0.76109
904.48345,0.74493
902.55491,0.73358
900.62637,0.72903
898.69784,0.73112
896.76930,0.73760
894.84076,0.74595
892.91223,0.75481
890.98369,0.76437
889.05516,0.77622
887.12662,0.79131
885.19808,0.80788
883.26955,0.82313
881.34101,0.83543
879.41248,0.84431
877.48394,0.85011
875.55540,0.85407
873.62687,0.85783
871.69833,0.86235
869.76980,0.86729
867.84126,0.87100
865.91272,0.87143
863.98419,0.86807
862.05565,0.86307
860.12711,0.85908
858.19858,0.85649
856.27004,0.85415
854.34151,0.85107
852.41297,0.84724
850.48443,0.84545
848.55590,0.85005
846.62736,0.86116
844.69883,0.87334
842.77029,0.88216
840.84175,0.88782
838.91322,0.89212
836.98468,0.89587
835.05614,0.89908
833.12761,0.90136
831.19907,0.90218
829.27054,0.90112
827.34200,0.89769
825.41346,0.89150
823.48493,0.88348
821.55639,0.87622
819.62786,0.87104
817.69932,0.86611
815.77078,0.85864
813.84225,0.84750
811.91371,0.83419
809.98517,0.82268
808.05664,0.81772
806.12810,0.82126
804.19957,0.83065
802.27103,0.84159
800.34249,0.85198
798.41396,0.86212
796.48542,0.87209
794.55689,0.88056
792.62835,0.88610
790.69981,0.88786
788.77128,0.88528
786.84274,0.87796
784.91421,0.86595
782.98567,0.84683
781.05713,0.81807
779.12860,0.78861
777.20006,0.77632
775.27152,0.78760
773.34299,0.81182
771.41445,0.83672
769.48592,0.85732
767.55738,0.87163
765.62884,0.87771
763.70031,0.87467
761.77177,0.86260
759.84324,0.84493
757.91470,0.83224
755.98616,0.83452
754.05763,0.84874
752.12909,0.86320
750.20055,0.87166
748.27202,0.87647
746.34348,0.88183
744.41495,0.88857
742.48641,0.89487
740.55787,0.89930
738.62934,0.90184
736.70080,0.90291
734.77227,0.90263
732.84373,0.90074
730.91519,0.89723
728.98666,0.89247
727.05812,0.88608
725.12959,0.87672
723.20105,0.86350
721.27251,0.84717
719.34398,0.83055
717.41544,0.81713
715.48690,0.80856
713.55837,0.80478
711.62983,0.80452
709.70130,0.80870
707.77276,0.82117
705.84422,0.84080
703.91569,0.85986
701.98715,0.87220
700.05862,0.87743
698.13008,0.87861
696.20154,0.87903
694.27301,0.88049
692.34447,0.88287
690.41593,0.88517
688.48740,0.88705
686.55886,0.88929
684.63033,0.89268
682.70179,0.89701
680.77325,0.90155
678.84472,0.90573
676.91618,0.90932
674.98765,0.91225
673.05911,0.91436
671.13057,0.91538
669.20204,0.91428
667.27350,0.91062
665.34497,0.90777
663.41643,0.90505
661.48789,0.90178
659.55936,0.90066
657.63082,0.90264
655.70228,0.90102
653.77375,0.88749
651.84521,0.86770
649.91668,0.86050
647.98814,0.87313
646.05960,0.89233
644.13107,0.90570
642.20253,0.91181
640.27400,0.91208
638.34546,0.90528
636.41692,0.88933
634.48839,0.86795
632.55985,0.85310
630.63131,0.85417
628.70278,0.86800
626.77424,0.88452
624.84571,0.89725
622.91717,0.90530
620.98863,0.90998
619.06010,0.91240
617.13156,0.91282
615.20303,0.91099
613.27449,0.90664
611.34595,0.89950
609.41742,0.89024
607.48888,0.88092
605.56035,0.87365
603.63181,0.86829
601.70327,0.86204
599.77474,0.85261
597.84620,0.84162
595.91766,0.83345
593.98913,0.83082
592.06059,0.83163
590.13206,0.82826
588.20352,0.80991
586.27498,0.76830
584.34645,0.71100
582.41791,0.66312
580.48938,0.64428
578.56084,0.65553
576.63230,0.68732
574.70377,0.72774
572.77523,0.76603
570.84669,0.79818
568.91816,0.82366
566.98962,0.84256
565.06109,0.85622
563.13255,0.86645
561.20401,0.87460
559.27548,0.88134
557.34694,0.88687
555.41841,0.89119
553.48987,0.89447
551.56133,0.89658
549.63280,0.89694
547.70426,0.89498
545.77573,0.88949
543.84719,0.87856
541.91865,0.86122
539.99012,0.83849
538.06158,0.81120
536.13304,0.77992
534.20451,0.75238
532.27597,0.74359
530.34744,0.75931
528.41890,0.78744
526.49036,0.81184
524.56183,0.82410
522.63329,0.82604
520.70476,0.82503
518.77622,0.82807
516.84768,0.83637
514.91915,0.84344
512.99061,0.84421
511.06207,0.83733
509.13354,0.82210
507.20500,0.79813
505.27647,0.76880
503.34793,0.73763
501.41939,0.70779
499.49086,0.69423
497.56232,0.71058
495.63379,0.74992
493.70525,0.79093
491.77671,0.82011
489.84818,0.83721
487.91964,0.84630
485.99110,0.85044
484.06257,0.85054
482.13403,0.84727
480.20550,0.84329
478.27696,0.84226
476.34842,0.84557
474.41989,0.85191
472.49135,0.85928
470.56282,0.86431
468.63428,0.86633
466.70574,0.86823
464.77721,0.87166
462.84867,0.87589
460.92014,0.87899
458.99160,0.87834
457.06306,0.87306
455.13453,0.86826
453.20599,0.86819
451.27745,0.87215
449.34892,0.87688
447.42038,0.88002
445.49185,0.88158
443.56331,0.88320
441.63477,0.88612
439.70624,0.88931
437.77770,0.89170
435.84917,0.89292
433.92063,0.89264
431.99209,0.89122
430.06356,0.88883
428.13502,0.88604
426.20648,0.88424
424.27795,0.88362
422.34941,0.88305
420.42088,0.88146
418.49234,0.87907
416.56380,0.87854
414.63527,0.87950
412.70673,0.88080
410.77820,0.88198
408.84966,0.88271
406.92112,0.88311
404.99259,0.88263
403.06405,0.88140
401.13552,0.88058
399.20698,0.87923
