3997.85540,0.99497
3995.92686,0.99478
3993.99833,0.99461
3992.06979,0.99450
3990.14125,0.99453
3988.21272,0.99466
3986.28418,0.99467
3984.35565,0.99455
3982.42711,0.99457
3980.49857,0.99482
3978.57004,0.99496
3976.64150,0.99485
3974.71297,0.99472
3972.78443,0.99477
3970.85589,0.99493
3968.92736,0.99521
3966.99882,0.99547
3965.07029,0.99546
3963.14175,0.99526
3961.21321,0.99515
3959.28468,0.99514
3957.35614,0.99512
3955.42760,0.99512
3953.49907,0.99505
3951.57053,0.99483
3949.64200,0.99466
3947.71346,0.99485
3945.78492,0.99503
3943.85639,0.99491
3941.92785,0.99491
3939.99932,0.99514
3938.07078,0.99531
3936.14224,0.99522
3934.21371,0.99471
3932.28517,0.99409
3930.35663,0.99418
3928.42810,0.99467
3926.49956,0.99473
3924.57103,0.99458
3922.64249,0.99468
3920.71395,0.99458
3918.78542,0.99414
3916.85688,0.99413
3914.92835,0.99471
3912.99981,0.99528
3911.07127,0.99556
3909.14274,0.99535
3907.21420,0.99446
3905.28566,0.99284
3903.35713,0.99131
3901.42859,0.99123
3899.50006,0.99229
3897.57152,0.99349
3895.64298,0.99389
3893.71445,0.99352
3891.78591,0.99327
3889.85738,0.99374
3887.92884,0.99388
3886.00030,0.99346
3884.07177,0.99320
3882.14323,0.99313
3880.21470,0.99334
3878.28616,0.99394
3876.35762,0.99409
3874.42909,0.99352
3872.50055,0.99257
3870.57201,0.99208
3868.64348,0.99247
3866.71494,0.99256
3864.78641,0.99205
3862.85787,0.99234
3860.92933,0.99335
3859.00080,0.99359
3857.07226,0.99283
3855.14373,0.99119
3853.21519,0.98994
3851.28665,0.99169
3849.35812,0.99339
3847.42958,0.99410
3845.50104,0.99391
3843.57251,0.99302
3841.64397,0.99180
3839.71544,0.99056
3837.78690,0.99031
3835.85836,0.99142
3833.92983,0.99253
3832.00129,0.99328
3830.07276,0.99350
3828.14422,0.99323
3826.21568,0.99277
3824.28715,0.99218
3822.35861,0.99115
3820.43008,0.99048
3818.50154,0.99117
3816.57300,0.99226
3814.64447,0.99367
3812.71593,0.99461
3810.78739,0.99477
3808.85886,0.99421
3806.93032,0.99328
3805.00179,0.99263
3803.07325,0.99194
3801.14471,0.99170
3799.21618,0.99248
3797.28764,0.99327
3795.35911,0.99421
3793.43057,0.99495
3791.50203,0.99520
3789.57350,0.99513
3787.64496,0.99481
3785.71642,0.99441
3783.78789,0.99436
3781.85935,0.99439
3779.93082,0.99429
3778.00228,0.99460
3776.07374,0.99506
3774.14521,0.99506
3772.21667,0.99446
3770.28814,0.99353
3768.35960,0.99305
3766.43106,0.99319
3764.50253,0.99361
3762.57399,0.99382
3760.64546,0.99345
3758.71692,0.99276
3756.78838,0.99238
3754.85985,0.99188
3752.93131,0.99039
3751.00277,0.98770
3749.07424,0.98705
3747.14570,0.98755
3745.21717,0.98741
3743.28863,0.98701
3741.36009,0.98632
3739.43156,0.98494
3737.50302,0.98238
3735.57449,0.97868
3733.64595,0.97723
3731.71741,0.97815
3729.78888,0.97867
3727.86034,0.97846
3725.93180,0.97836
3724.00327,0.97967
3722.07473,0.98214
3720.14620,0.98507
3718.21766,0.98785
3716.28912,0.98952
3714.36059,0.98944
3712.43205,0.98693
3710.50352,0.98353
3708.57498,0.98347
3706.64644,0.98406
3704.71791,0.98413
3702.78937,0.98432
3700.86084,0.98494
3698.93230,0.98522
3697.00376,0.98519
3695.07523,0.98509
3693.14669,0.98465
3691.21815,0.98409
3689.28962,0.98511
3687.36108,0.98717
3685.43255,0.98839
3683.50401,0.98910
3681.57547,0.98907
3679.64694,0.98815
3677.71840,0.98677
3675.78987,0.98624
3673.86133,0.98709
3671.93279,0.98720
3670.00426,0.98747
3668.07572,0.98927
3666.14718,0.99056
3664.21865,0.99099
3662.29011,0.99099
3660.36158,0.99077
3658.43304,0.99017
3656.50450,0.98927
3654.57597,0.98875
3652.64743,0.98816
3650.71890,0.98619
3648.79036,0.98373
3646.86182,0.98525
3644.93329,0.98648
3643.00475,0.98671
3641.07622,0.98647
3639.14768,0.98593
3637.21914,0.98495
3635.29061,0.98336
3633.36207,0.98135
3631.43353,0.97951
3629.50500,0.97816
3627.57646,0.97801
3625.64793,0.97861
3623.71939,0.97920
3621.79085,0.97990
3619.86232,0.98084
3617.93378,0.98179
3616.00525,0.98237
3614.07671,0.98288
3612.14817,0.98318
3610.21964,0.98236
3608.29110,0.98088
3606.36256,0.98064
3604.43403,0.98094
3602.50549,0.98042
3600.57696,0.97965
3598.64842,0.97981
3596.71988,0.97999
3594.79135,0.97972
3592.86281,0.98022
3590.93428,0.98115
3589.00574,0.98158
3587.07720,0.98197
3585.14867,0.98299
3583.22013,0.98394
3581.29160,0.98459
3579.36306,0.98491
3577.43452,0.98499
3575.50599,0.98506
3573.57745,0.98524
3571.64891,0.98525
3569.72038,0.98471
3567.79184,0.98349
3565.86331,0.98304
3563.93477,0.98391
3562.00623,0.98471
3560.07770,0.98527
3558.14916,0.98559
3556.22063,0.98560
3554.29209,0.98539
3552.36355,0.98529
3550.43502,0.98537
3548.50648,0.98519
3546.57794,0.98466
3544.64941,0.98456
3542.72087,0.98518
3540.79234,0.98566
3538.86380,0.98563
3536.93526,0.98539
3535.00673,0.98527
3533.07819,0.98510
3531.14966,0.98461
3529.22112,0.98397
3527.29258,0.98350
3525.36405,0.98324
3523.43551,0.98324
3521.50697,0.98343
3519.57844,0.98350
3517.64990,0.98350
3515.72137,0.98349
3513.79283,0.98328
3511.86429,0.98289
3509.93576,0.98261
3508.00722,0.98253
3506.07869,0.98224
3504.15015,0.98159
3502.22161,0.98134
3500.29308,0.98167
3498.36454,0.98178
3496.43601,0.98156
3494.50747,0.98146
3492.57893,0.98145
3490.65040,0.98120
3488.72186,0.98079
3486.79332,0.98046
3484.86479,0.98007
3482.93625,0.97958
3481.00772,0.97940
3479.07918,0.97955
3477.15064,0.97951
3475.22211,0.97930
3473.29357,0.97923
3471.36504,0.97930
3469.43650,0.97922
3467.50796,0.97901
3465.57943,0.97891
3463.65089,0.97892
3461.72235,0.97898
3459.79382,0.97915
3457.86528,0.97930
3455.93675,0.97946
3454.00821,0.97969
3452.07967,0.97991
3450.15114,0.97995
3448.22260,0.97987
3446.29407,0.97997
3444.36553,0.98030
3442.43699,0.98063
3440.50846,0.98097
3438.57992,0.98134
3436.65139,0.98171
3434.72285,0.98201
3432.79431,0.98213
3430.86578,0.98224
3428.93724,0.98244
3427.00870,0.98259
3425.08017,0.98259
3423.15163,0.98244
3421.22310,0.98234
3419.29456,0.98257
3417.36602,0.98288
3415.43749,0.98293
3413.50895,0.98277
3411.58042,0.98262
3409.65188,0.98248
3407.72334,0.98226
3405.79481,0.98197
3403.86627,0.98164
3401.93773,0.98122
3400.00920,0.98063
3398.08066,0.97990
3396.15213,0.97915
3394.22359,0.97834
3392.29505,0.97748
3390.36652,0.97669
3388.43798,0.97580
3386.50945,0.97468
3384.58091,0.97348
3382.65237,0.97230
3380.72384,0.97107
3378.79530,0.96975
3376.86677,0.96836
3374.93823,0.96689
3373.00969,0.96542
3371.08116,0.96401
3369.15262,0.96259
3367.22408,0.96125
3365.29555,0.96014
3363.36701,0.95919
3361.43848,0.95828
3359.50994,0.95749
3357.58140,0.95688
3355.65287,0.95634
3353.72433,0.95584
3351.79580,0.95541
3349.86726,0.95500
3347.93872,0.95454
3346.01019,0.95403
3344.08165,0.95346
3342.15311,0.95285
3340.22458,0.95225
3338.29604,0.95156
3336.36751,0.95066
3334.43897,0.94972
3332.51043,0.94895
3330.58190,0.94829
3328.65336,0.94759
3326.72483,0.94681
3324.79629,0.94590
3322.86775,0.94486
3320.93922,0.94379
3319.01068,0.94274
3317.08215,0.94177
3315.15361,0.94084
3313.22507,0.93986
3311.29654,0.93883
3309.36800,0.93778
3307.43946,0.93679
3305.51093,0.93593
3303.58239,0.93502
3301.65386,0.93398
3299.72532,0.93282
3297.79678,0.93159
3295.86825,0.93050
3293.93971,0.92951
3292.01118,0.92851
3290.08264,0.92750
3288.15410,0.92651
3286.22557,0.92553
3284.29703,0.92458
3282.36849,0.92369
3280.43996,0.92287
3278.51142,0.92210
3276.58289,0.92132
3274.65435,0.92058
3272.72581,0.91999
3270.79728,0.91949
3268.86874,0.91894
3266.94021,0.91832
3265.01167,0.91782
3263.08313,0.91743
3261.15460,0.91704
3259.22606,0.91671
3257.29753,0.91647
3255.36899,0.91628
3253.44045,0.91618
3251.51192,0.91625
3249.58338,0.91639
3247.65484,0.91651
3245.72631,0.91663
3243.79777,0.91697
3241.86924,0.91751
3239.94070,0.91810
3238.01216,0.91874
3236.08363,0.91950
3234.15509,0.92034
3232.22656,0.92113
3230.29802,0.92188
3228.36948,0.92274
3226.44095,0.92380
3224.51241,0.92490
3222.58387,0.92591
3220.65534,0.92696
3218.72680,0.92811
3216.79827,0.92925
3214.86973,0.93040
3212.94119,0.93153
3211.01266,0.93258
3209.08412,0.93369
3207.15559,0.93491
3205.22705,0.93606
3203.29851,0.93714
3201.36998,0.93824
3199.44144,0.93932
3197.51290,0.94051
3195.58437,0.94192
3193.65583,0.94338
3191.72730,0.94469
3189.79876,0.94588
3187.87022,0.94703
3185.94169,0.94812
3184.01315,0.94926
3182.08462,0.95040
3180.15608,0.95134
3178.22754,0.95215
3176.29901,0.95307
3174.37047,0.95407
3172.44194,0.95499
3170.51340,0.95584
3168.58486,0.95668
3166.65633,0.95746
3164.72779,0.95816
3162.79925,0.95880
3160.87072,0.95952
3158.94218,0.96036
3157.01365,0.96133
3155.08511,0.96231
3153.15657,0.96314
3151.22804,0.96376
3149.29950,0.96423
3147.37097,0.96466
3145.44243,0.96509
3143.51389,0.96547
3141.58536,0.96587
3139.65682,0.96630
3137.72828,0.96666
3135.79975,0.96686
3133.87121,0.96703
3131.94268,0.96738
3130.01414,0.96777
3128.08560,0.96796
3126.15707,0.96801
3124.22853,0.96813
3122.30000,0.96839
3120.37146,0.96869
3118.44292,0.96885
3116.51439,0.96890
3114.58585,0.96894
3112.65732,0.96899
3110.72878,0.96901
3108.80024,0.96902
3106.87171,0.96909
3104.94317,0.96916
3103.01463,0.96911
3101.08610,0.96906
3099.15756,0.96912
3097.22903,0.96910
3095.30049,0.96898
3093.37195,0.96894
3091.44342,0.96889
3089.51488,0.96865
3087.58635,0.96825
3085.65781,0.96782
3083.72927,0.96740
3081.80074,0.96707
3079.87220,0.96694
3077.94366,0.96693
3076.01513,0.96694
3074.08659,0.96694
3072.15806,0.96703
3070.22952,0.96722
3068.30098,0.96734
3066.37245,0.96726
3064.44391,0.96714
3062.51538,0.96710
3060.58684,0.96705
3058.65830,0.96699
3056.72977,0.96699
3054.80123,0.96703
3052.87270,0.96710
3050.94416,0.96711
3049.01562,0.96702
3047.08709,0.96696
3045.15855,0.96691
3043.23001,0.96673
3041.30148,0.96633
3039.37294,0.96573
3037.44441,0.96522
3035.51587,0.96500
3033.58733,0.96470
3031.65880,0.96411
3029.73026,0.96340
3027.80173,0.96282
3025.87319,0.96253
3023.94465,0.96231
3022.01612,0.96202
3020.08758,0.96188
3018.15904,0.96190
3016.23051,0.96194
3014.30197,0.96205
3012.37344,0.96232
3010.44490,0.96284
3008.51636,0.96359
3006.58783,0.96451
3004.65929,0.96564
3002.73076,0.96690
3000.80222,0.96828
2998.87368,0.96971
2996.94515,0.97086
2995.01661,0.97167
2993.08808,0.97225
2991.15954,0.97220
2989.23100,0.97145
2987.30247,0.97060
2985.37393,0.97013
2983.44539,0.97006
2981.51686,0.96989
2979.58832,0.96909
2977.65979,0.96786
2975.73125,0.96671
2973.80271,0.96568
2971.87418,0.96449
2969.94564,0.96334
2968.01711,0.96268
2966.08857,0.96270
2964.16003,0.96324
2962.23150,0.96370
2960.30296,0.96366
2958.37442,0.96342
2956.44589,0.96329
2954.51735,0.96310
2952.58882,0.96249
2950.66028,0.96138
2948.73174,0.96018
2946.80321,0.95920
2944.87467,0.95839
2942.94614,0.95778
2941.01760,0.95761
2939.08906,0.95822
2937.16053,0.95975
2935.23199,0.96210
2933.30346,0.96512
2931.37492,0.96841
2929.44638,0.97122
2927.51785,0.97307
2925.58931,0.97418
2923.66077,0.97484
2921.73224,0.97514
2919.80370,0.97525
2917.87517,0.97522
2915.94663,0.97504
2914.01809,0.97482
2912.08956,0.97469
2910.16102,0.97462
2908.23249,0.97468
2906.30395,0.97498
2904.37541,0.97547
2902.44688,0.97591
2900.51834,0.97630
2898.58980,0.97675
2896.66127,0.97716
2894.73273,0.97723
2892.80420,0.97701
2890.87566,0.97683
2888.94712,0.97682
2887.01859,0.97682
2885.09005,0.97676
2883.16152,0.97672
2881.23298,0.97677
2879.30444,0.97685
2877.37591,0.97705
2875.44737,0.97740
2873.51883,0.97763
2871.59030,0.97742
2869.66176,0.97698
2867.73323,0.97668
2865.80469,0.97651
2863.87615,0.97645
2861.94762,0.97660
2860.01908,0.97671
2858.09055,0.97648
2856.16201,0.97594
2854.23347,0.97514
2852.30494,0.97399
2850.37640,0.97238
2848.44787,0.97020
2846.51933,0.96743
2844.59079,0.96448
2842.66226,0.96207
2840.73372,0.96073
2838.80518,0.96065
2836.87665,0.96174
2834.94811,0.96375
2833.01958,0.96632
2831.09104,0.96894
2829.16250,0.97117
2827.23397,0.97286
2825.30543,0.97410
2823.37690,0.97498
2821.44836,0.97563
2819.51982,0.97617
2817.59129,0.97663
2815.66275,0.97709
2813.73421,0.97760
2811.80568,0.97815
2809.87714,0.97861
2807.94861,0.97889
2806.02007,0.97906
2804.09153,0.97929
2802.16300,0.97966
2800.23446,0.98011
2798.30593,0.98053
2796.37739,0.98079
2794.44885,0.98094
2792.52032,0.98110
2790.59178,0.98122
2788.66325,0.98121
2786.73471,0.98111
2784.80617,0.98105
2782.87764,0.98109
2780.94910,0.98115
2779.02056,0.98122
2777.09203,0.98133
2775.16349,0.98144
2773.23496,0.98137
2771.30642,0.98116
2769.37788,0.98100
2767.44935,0.98099
2765.52081,0.98110
2763.59228,0.98126
2761.66374,0.98147
2759.73520,0.98173
2757.80667,0.98197
2755.87813,0.98213
2753.94959,0.98230
2752.02106,0.98260
2750.09252,0.98293
2748.16399,0.98316
2746.23545,0.98333
2744.30691,0.98349
2742.37838,0.98365
2740.44984,0.98384
2738.52131,0.98410
2736.59277,0.98435
2734.66423,0.98455
2732.73570,0.98468
2730.80716,0.98479
2728.87863,0.98496
2726.95009,0.98525
2725.02155,0.98554
2723.09302,0.98574
2721.16448,0.98583
2719.23594,0.98590
2717.30741,0.98603
2715.37887,0.98617
2713.45034,0.98632
2711.52180,0.98647
2709.59326,0.98658
2707.66473,0.98665
2705.73619,0.98676
2703.80766,0.98692
2701.87912,0.98710
2699.95058,0.98730
2698.02205,0.98747
2696.09351,0.98755
2694.16497,0.98761
2692.23644,0.98768
2690.30790,0.98773
2688.37937,0.98772
2686.45083,0.98768
2684.52229,0.98773
2682.59376,0.98795
2680.66522,0.98824
2678.73669,0.98840
2676.80815,0.98830
2674.87961,0.98813
2672.95108,0.98799
2671.02254,0.98780
2669.09401,0.98758
2667.16547,0.98745
2665.23693,0.98734
2663.30840,0.98725
2661.37986,0.98725
2659.45132,0.98728
2657.52279,0.98722
2655.59425,0.98709
2653.66572,0.98698
2651.73718,0.98691
2649.80864,0.98687
2647.88011,0.98690
2645.95157,0.98706
2644.02304,0.98737
2642.09450,0.98774
2640.16596,0.98810
2638.23743,0.98837
2636.30889,0.98852
2634.38035,0.98864
2632.45182,0.98880
2630.52328,0.98900
2628.59475,0.98921
2626.66621,0.98934
2624.73767,0.98936
2622.80914,0.98932
2620.88060,0.98938
2618.95207,0.98963
2617.02353,0.98995
2615.09499,0.99013
2613.16646,0.99018
2611.23792,0.99023
2609.30939,0.99029
2607.38085,0.99041
2605.45231,0.99055
2603.52378,0.99063
2601.59524,0.99066
2599.66670,0.99065
2597.73817,0.99060
2595.80963,0.99055
2593.88110,0.99054
2591.95256,0.99060
2590.02402,0.99061
2588.09549,0.99042
2586.16695,0.99011
2584.23842,0.98987
2582.30988,0.98964
2580.38134,0.98944
2578.45281,0.98940
2576.52427,0.98956
2574.59573,0.98978
2572.66720,0.98991
2570.73866,0.99000
2568.81013,0.99012
2566.88159,0.99032
2564.95305,0.99052
2563.02452,0.99066
2561.09598,0.99083
2559.16745,0.99103
2557.23891,0.99120
2555.31037,0.99132
2553.38184,0.99144
2551.45330,0.99160
2549.52476,0.99178
2547.59623,0.99186
2545.66769,0.99190
2543.73916,0.99202
2541.81062,0.99214
2539.88208,0.99204
2537.95355,0.99182
2536.02501,0.99167
2534.09648,0.99158
2532.16794,0.99144
2530.23940,0.99120
2528.31087,0.99090
2526.38233,0.99069
2524.45380,0.99068
2522.52526,0.99078
2520.59672,0.99083
2518.66819,0.99083
2516.73965,0.99088
2514.81111,0.99092
2512.88258,0.99090
2510.95404,0.99086
2509.02551,0.99086
2507.09697,0.99091
2505.16843,0.99090
2503.23990,0.99075
2501.31136,0.99051
2499.38283,0.99030
2497.45429,0.99015
2495.52575,0.99008
2493.59722,0.99001
2491.66868,0.98995
2489.74014,0.99000
2487.81161,0.99009
2485.88307,0.99013
2483.95454,0.99016
2482.02600,0.99015
2480.09746,0.99009
2478.16893,0.99018
2476.24039,0.99047
2474.31186,0.99072
2472.38332,0.99086
2470.45478,0.99103
2468.52625,0.99122
2466.59771,0.99142
2464.66918,0.99163
2462.74064,0.99176
2460.81210,0.99181
2458.88357,0.99189
2456.95503,0.99200
2455.02649,0.99202
2453.09796,0.99196
2451.16942,0.99186
2449.24089,0.99174
2447.31235,0.99171
2445.38381,0.99187
2443.45528,0.99215
2441.52674,0.99244
2439.59821,0.99268
2437.66967,0.99283
2435.74113,0.99289
2433.81260,0.99291
2431.88406,0.99291
2429.95552,0.99296
2428.02699,0.99312
2426.09845,0.99327
2424.16992,0.99320
2422.24138,0.99293
2420.31284,0.99271
2418.38431,0.99269
2416.45577,0.99278
2414.52724,0.99272
2412.59870,0.99254
2410.67016,0.99238
2408.74163,0.99224
2406.81309,0.99212
2404.88456,0.99213
2402.95602,0.99223
2401.02748,0.99224
2399.09895,0.99216
2397.17041,0.99210
2395.24187,0.99207
2393.31334,0.99200
2391.38480,0.99163
2389.45627,0.99054
2387.52773,0.98804
2385.59919,0.98325
2383.67066,0.97572
2381.74212,0.96586
2379.81359,0.95423
2377.88505,0.94075
2375.95651,0.92493
2374.02798,0.90656
2372.09944,0.88613
2370.17090,0.86457
2368.24237,0.84342
2366.31383,0.82466
2364.38530,0.80999
2362.45676,0.80055
2360.52822,0.79714
2358.59969,0.80142
2356.67115,0.81525
2354.74262,0.83584
2352.81408,0.85977
2350.88554,0.88070
2348.95701,0.88989
2347.02847,0.88431
2345.09994,0.86678
2343.17140,0.85055
2341.24286,0.84607
2339.31433,0.84825
2337.38579,0.85148
2335.45725,0.85490
2333.52872,0.85833
2331.60018,0.86117
2329.67165,0.86429
2327.74311,0.86906
2325.81457,0.87596
2323.88604,0.88460
2321.95750,0.89432
2320.02897,0.90414
2318.10043,0.91314
2316.17189,0.92080
2314.24336,0.92647
2312.31482,0.93040
2310.38628,0.93466
2308.45775,0.94084
2306.52921,0.94815
2304.60068,0.95450
2302.67214,0.95878
2300.74360,0.96189
2298.81507,0.96506
2296.88653,0.96830
2294.95800,0.97151
2293.02946,0.97491
2291.10092,0.97837
2289.17239,0.98165
2287.24385,0.98475
2285.31532,0.98742
2283.38678,0.98906
2281.45824,0.98936
2279.52971,0.98886
2277.60117,0.98834
2275.67263,0.98812
2273.74410,0.98821
2271.81556,0.98835
2269.88703,0.98836
2267.95849,0.98842
2266.02995,0.98873
2264.10142,0.98912
2262.17288,0.98945
2260.24435,0.98985
2258.31581,0.99036
2256.38727,0.99086
2254.45874,0.99136
2252.53020,0.99194
2250.60166,0.99247
2248.67313,0.99283
2246.74459,0.99325
2244.81606,0.99377
2242.88752,0.99407
2240.95898,0.99402
2239.03045,0.99394
2237.10191,0.99413
2235.17338,0.99442
2233.24484,0.99452
2231.31630,0.99454
2229.38777,0.99456
2227.45923,0.99450
2225.53070,0.99449
2223.60216,0.99481
2221.67362,0.99524
2219.74509,0.99536
2217.81655,0.99520
2215.88801,0.99505
2213.95948,0.99500
2212.03094,0.99503
2210.10241,0.99523
2208.17387,0.99551
2206.24533,0.99557
2204.31680,0.99538
2202.38826,0.99512
2200.45973,0.99494
2198.53119,0.99474
2196.60265,0.99459
2194.67412,0.99467
2192.74558,0.99490
2190.81704,0.99516
2188.88851,0.99526
2186.95997,0.99526
2185.03144,0.99526
2183.10290,0.99520
2181.17436,0.99511
2179.24583,0.99524
2177.31729,0.99553
2175.38876,0.99563
2173.46022,0.99554
2171.53168,0.99548
2169.60315,0.99540
2167.67461,0.99512
2165.74607,0.99493
2163.81754,0.99522
2161.88900,0.99575
2159.96047,0.99600
2158.03193,0.99577
2156.10339,0.99548
2154.17486,0.99539
2152.24632,0.99528
2150.31779,0.99507
2148.38925,0.99491
2146.46071,0.99489
2144.53218,0.99484
2142.60364,0.99478
2140.67511,0.99480
2138.74657,0.99486
2136.81803,0.99476
2134.88950,0.99444
2132.96096,0.99432
2131.03242,0.99454
2129.10389,0.99476
2127.17535,0.99478
2125.24682,0.99469
2123.31828,0.99470
2121.38974,0.99475
2119.46121,0.99476
2117.53267,0.99479
2115.60414,0.99475
2113.67560,0.99458
2111.74706,0.99452
2109.81853,0.99456
2107.88999,0.99446
2105.96145,0.99428
2104.03292,0.99418
2102.10438,0.99418
2100.17585,0.99421
2098.24731,0.99417
2096.31877,0.99405
2094.39024,0.99389
2092.46170,0.99378
2090.53317,0.99384
2088.60463,0.99389
2086.67609,0.99382
2084.74756,0.99385
2082.81902,0.99398
2080.89049,0.99409
2078.96195,0.99415
2077.03341,0.99401
2075.10488,0.99374
2073.17634,0.99359
2071.24780,0.99348
2069.31927,0.99324
2067.39073,0.99303
2065.46220,0.99307
2063.53366,0.99327
2061.60512,0.99344
2059.67659,0.99364
2057.74805,0.99393
2055.81952,0.99410
2053.89098,0.99413
2051.96244,0.99437
2050.03391,0.99487
2048.10537,0.99518
2046.17683,0.99510
2044.24830,0.99485
2042.31976,0.99465
2040.39123,0.99474
2038.46269,0.99516
2036.53415,0.99551
2034.60562,0.99548
2032.67708,0.99524
2030.74855,0.99514
2028.82001,0.99532
2026.89147,0.99562
2024.96294,0.99579
2023.03440,0.99571
2021.10587,0.99544
2019.17733,0.99517
2017.24879,0.99521
2015.32026,0.99586
2013.39172,0.99696
2011.46318,0.99785
2009.53465,0.99818
2007.60611,0.99822
2005.67758,0.99824
2003.74904,0.99820
2001.82050,0.99806
1999.89197,0.99806
1997.96343,0.99841
1996.03490,0.99870
1994.10636,0.99851
1992.17782,0.99801
1990.24929,0.99768
1988.32075,0.99767
1986.39221,0.99768
1984.46368,0.99758
1982.53514,0.99747
1980.60661,0.99734
1978.67807,0.99723
1976.74953,0.99719
1974.82100,0.99707
1972.89246,0.99667
1970.96393,0.99609
1969.03539,0.99562
1967.10685,0.99526
1965.17832,0.99516
1963.24978,0.99528
1961.32125,0.99540
1959.39271,0.99524
1957.46417,0.99468
1955.53564,0.99400
1953.60710,0.99366
1951.67856,0.99383
1949.75003,0.99409
1947.82149,0.99400
1945.89296,0.99362
1943.96442,0.99327
1942.03588,0.99310
1940.10735,0.99309
1938.17881,0.99313
1936.25028,0.99325
1934.32174,0.99351
1932.39320,0.99370
1930.46467,0.99362
1928.53613,0.99357
1926.60759,0.99363
1924.67906,0.99354
1922.75052,0.99326
1920.82199,0.99303
1918.89345,0.99299
1916.96491,0.99332
1915.03638,0.99392
1913.10784,0.99424
1911.17931,0.99412
1909.25077,0.99388
1907.32223,0.99398
1905.39370,0.99421
1903.46516,0.99425
1901.53663,0.99416
1899.60809,0.99406
1897.67955,0.99392
1895.75102,0.99371
1893.82248,0.99359
1891.89394,0.99346
1889.96541,0.99334
1888.03687,0.99350
1886.10834,0.99363
1884.17980,0.99354
1882.25126,0.99342
1880.32273,0.99331
1878.39419,0.99319
1876.46566,0.99311
1874.53712,0.99300
1872.60858,0.99256
1870.68005,0.99161
1868.75151,0.99067
1866.82297,0.99107
1864.89444,0.99198
1862.96590,0.99239
1861.03737,0.99233
1859.10883,0.99216
1857.18029,0.99219
1855.25176,0.99232
1853.32322,0.99239
1851.39469,0.99240
1849.46615,0.99229
1847.53761,0.99188
1845.60908,0.99112
1843.68054,0.99114
1841.75200,0.99218
1839.82347,0.99283
1837.89493,0.99294
1835.96640,0.99298
1834.03786,0.99300
1832.10932,0.99267
1830.18079,0.99222
1828.25225,0.99224
1826.32372,0.99247
1824.39518,0.99270
1822.46664,0.99303
1820.53811,0.99321
1818.60957,0.99312
1816.68104,0.99292
1814.75250,0.99263
1812.82396,0.99215
1810.89543,0.99173
1808.96689,0.99178
1807.03835,0.99198
1805.10982,0.99189
1803.18128,0.99140
1801.25275,0.99079
1799.32421,0.99060
1797.39567,0.99055
1795.46714,0.99017
1793.53860,0.98952
1791.61007,0.98943
1789.68153,0.99021
1787.75299,0.99070
1785.82446,0.99058
1783.89592,0.99016
1781.96738,0.98975
1780.03885,0.98951
1778.11031,0.98947
1776.18178,0.98917
1774.25324,0.98828
1772.32470,0.98740
1770.39617,0.98778
1768.46763,0.98867
1766.53910,0.98923
1764.61056,0.98928
1762.68202,0.98893
1760.75349,0.98875
1758.82495,0.98890
1756.89642,0.98911
1754.96788,0.98922
1753.03934,0.98888
1751.11081,0.98785
1749.18227,0.98679
1747.25373,0.98693
1745.32520,0.98757
1743.39666,0.98804
1741.46813,0.98808
1739.53959,0.98778
1737.61105,0.98749
1735.68252,0.98703
1733.75398,0.98605
1731.82545,0.98593
1729.89691,0.98667
1727.96837,0.98722
1726.03984,0.98722
1724.11130,0.98675
1722.18276,0.98609
1720.25423,0.98517
1718.32569,0.98322
1716.39716,0.98126
1714.46862,0.98256
1712.54008,0.98390
1710.61155,0.98421
1708.68301,0.98363
1706.75448,0.98225
1704.82594,0.98079
1702.89740,0.98003
1700.96887,0.97902
1699.04033,0.97760
1697.11180,0.97788
1695.18326,0.97954
1693.25472,0.98032
1691.32619,0.97985
1689.39765,0.97828
1687.46911,0.97632
1685.54058,0.97372
1683.61204,0.96873
1681.68351,0.96493
1679.75497,0.96238
1677.82643,0.95925
1675.89790,0.95399
1673.96936,0.94687
1672.04083,0.94088
1670.11229,0.93421
1668.18375,0.92865
1666.25522,0.92652
1664.32668,0.92477
1662.39814,0.92362
1660.46961,0.92470
1658.54107,0.92661
1656.61254,0.92809
1654.68400,0.92988
1652.75546,0.93601
1650.82693,0.93982
1648.89839,0.93938
1646.96986,0.93660
1645.04132,0.93482
1643.11278,0.93442
1641.18425,0.93404
1639.25571,0.93393
1637.32718,0.93574
1635.39864,0.94436
1633.47010,0.95155
1631.54157,0.95401
1629.61303,0.95449
1627.68449,0.95336
1625.75596,0.95119
1623.82742,0.94786
1621.89889,0.94433
1619.97035,0.94194
1618.04181,0.93796
1616.11328,0.92821
1614.18474,0.91662
1612.25621,0.90441
1610.32767,0.89008
1608.39913,0.87823
1606.47060,0.87090
1604.54206,0.86060
1602.61352,0.84488
1600.68499,0.83573
1598.75645,0.84170
1596.82792,0.85528
1594.89938,0.86410
1592.97084,0.86171
1591.04231,0.85402
1589.11377,0.84813
1587.18524,0.84371
1585.25670,0.83614
1583.32816,0.82624
1581.39963,0.82213
1579.47109,0.82800
1577.54256,0.84911
1575.61402,0.89277
1573.68548,0.92013
1571.75695,0.93017
1569.82841,0.93962
1567.89987,0.94833
1565.97134,0.95226
1564.04280,0.95448
1562.11427,0.95580
1560.18573,0.95628
1558.25719,0.95759
1556.32866,0.95873
1554.40012,0.95995
1552.47159,0.96048
1550.54305,0.96025
1548.61451,0.95945
1546.68598,0.95813
1544.75744,0.95552
1542.82890,0.95008
1540.90037,0.94207
1538.97183,0.93456
1537.04330,0.93151
1535.11476,0.92656
1533.18622,0.91574
1531.25769,0.90452
1529.32915,0.89354
1527.40062,0.87199
1525.47208,0.83528
1523.54354,0.79151
1521.61501,0.71879
1519.68647,0.65592
1517.75793,0.64050
1515.82940,0.65467
1513.90086,0.68527
1511.97233,0.72281
1510.04379,0.76127
1508.11525,0.80101
1506.18672,0.83702
1504.25818,0.83545
1502.32965,0.82094
1500.40111,0.79497
1498.47257,0.74837
1496.54404,0.68028
1494.61550,0.63276
1492.68697,0.60857
1490.75843,0.58675
1488.82989,0.56540
1486.90136,0.56489
1484.97282,0.57440
1483.04428,0.58848
1481.11575,0.61128
1479.18721,0.63915
1477.25868,0.66798
1475.33014,0.69962
1473.40160,0.73342
1471.47307,0.75626
1469.54453,0.76323
1467.61600,0.76716
1465.68746,0.77657
1463.75892,0.79307
1461.83039,0.80543
1459.90185,0.81220
1457.97331,0.81719
1456.04478,0.81810
1454.11624,0.81562
1452.18771,0.81352
1450.25917,0.81570
1448.33063,0.82817
1446.40210,0.84786
1444.47356,0.86203
1442.54503,0.86746
1440.61649,0.86541
1438.68795,0.85514
1436.75942,0.83056
1434.83088,0.80385
1432.90235,0.79137
1430.97381,0.78507
1429.04527,0.78256
1427.11674,0.78453
1425.18820,0.79091
1423.25966,0.80211
1421.33113,0.81460
1419.40259,0.83074
1417.47406,0.85018
1415.54552,0.86034
1413.61698,0.86538
1411.68845,0.86989
1409.75991,0.87509
1407.83138,0.88015
1405.90284,0.88454
1403.97430,0.88769
1402.04577,0.88820
1400.11723,0.88580
1398.18869,0.88038
1396.26016,0.87328
1394.33162,0.86567
1392.40309,0.85976
1390.47455,0.85548
1388.54601,0.85157
1386.61748,0.84981
1384.68894,0.85214
1382.76041,0.85739
1380.83187,0.86497
1378.90333,0.87418
1376.97480,0.88341
1375.04626,0.89344
1373.11773,0.90443
1371.18919,0.91245
1369.26065,0.91853
1367.33212,0.92380
1365.40358,0.92731
1363.47504,0.92970
1361.54651,0.93183
1359.61797,0.93295
1357.68944,0.93237
1355.76090,0.92993
1353.83236,0.92539
1351.90383,0.91859
1349.97529,0.90832
1348.04676,0.89344
1346.11822,0.87383
1344.18968,0.85009
1342.26115,0.82272
1340.33261,0.78552
1338.40407,0.73924
1336.47554,0.70373
1334.54700,0.67910
1332.61847,0.65872
1330.68993,0.64230
1328.76139,0.63167
1326.83286,0.62807
1324.90432,0.63097
1322.97579,0.63932
1321.04725,0.65386
1319.11871,0.67700
1317.19018,0.70532
1315.26164,0.73177
1313.33311,0.75584
1311.40457,0.77812
1309.47603,0.79910
1307.54750,0.82162
1305.61896,0.84603
1303.69042,0.86952
1301.76189,0.88923
1299.83335,0.90291
1297.90482,0.90881
1295.97628,0.90446
1294.04774,0.88808
1292.11921,0.86296
1290.19067,0.83980
1288.26214,0.83260
1286.33360,0.84648
1284.40506,0.87187
1282.47653,0.89639
1280.54799,0.91429
1278.61945,0.92603
1276.69092,0.93415
1274.76238,0.93996
1272.83385,0.94342
1270.90531,0.94399
1268.97677,0.94095
1267.04824,0.93330
1265.11970,0.91969
1263.19117,0.89935
1261.26263,0.87308
1259.33409,0.84541
1257.40556,0.82348
1255.47702,0.80999
1253.54849,0.80258
1251.61995,0.79761
1249.69141,0.79293
1247.76288,0.78863
1245.83434,0.78541
1243.90580,0.78404
1241.97727,0.78632
1240.04873,0.79530
1238.12020,0.81340
1236.19166,0.83969
1234.26312,0.86943
1232.33459,0.89680
1230.40605,0.91831
1228.47752,0.93357
1226.54898,0.94396
1224.62044,0.95110
1222.69191,0.95611
1220.76337,0.95966
1218.83483,0.96214
1216.90630,0.96386
1214.97776,0.96505
1213.04923,0.96590
1211.12069,0.96653
1209.19215,0.96695
1207.26362,0.96717
1205.33508,0.96719
1203.40655,0.96688
1201.47801,0.96608
1199.54947,0.96466
1197.62094,0.96243
1195.69240,0.95914
1193.76387,0.95497
1191.83533,0.95080
1189.90679,0.94791
1187.97826,0.94693
1186.04972,0.94694
1184.12118,0.94607
1182.19265,0.94273
1180.26411,0.93579
1178.33558,0.92418
1176.40704,0.90685
1174.47850,0.88325
1172.54997,0.85425
1170.62143,0.82140
1168.69290,0.78523
1166.76436,0.74554
1164.83582,0.70301
1162.90729,0.66054
1160.97875,0.62294
1159.05021,0.59548
1157.12168,0.58256
1155.19314,0.58608
1153.26461,0.60442
1151.33607,0.63309
1149.40753,0.66665
1147.47900,0.70027
1145.55046,0.73068
1143.62193,0.75648
1141.69339,0.77813
1139.76485,0.79712
1137.83632,0.81506
1135.90778,0.83290
1133.97924,0.85060
1132.05071,0.86764
1130.12217,0.88357
1128.19364,0.89802
1126.26510,0.91077
1124.33656,0.92173
1122.40803,0.93074
1120.47949,0.93769
1118.55096,0.94273
1116.62242,0.94633
1114.69388,0.94894
1112.76535,0.95071
1110.83681,0.95170
1108.90828,0.95198
1106.97974,0.95152
1105.05120,0.94998
1103.12267,0.94671
1101.19413,0.94100
1099.26559,0.93228
1097.33706,0.92054
1095.40852,0.90655
1093.47999,0.89138
1091.55145,0.87571
1089.62291,0.86149
1087.69438,0.85417
1085.76584,0.85967
1083.83731,0.87691
1081.90877,0.89618
1079.98023,0.90722
1078.05170,0.90596
1076.12316,0.89277
1074.19462,0.86799
1072.26609,0.83181
1070.33755,0.78764
1068.40902,0.74567
1066.48048,0.72087
1064.55194,0.72432
1062.62341,0.75518
1060.69487,0.80067
1058.76634,0.84425
1056.83780,0.87540
1054.90926,0.89235
1052.98073,0.89819
1051.05219,0.89659
1049.12366,0.89057
1047.19512,0.88238
1045.26658,0.87341
1043.33805,0.86411
1041.40951,0.85469
1039.48097,0.84614
1037.55244,0.84058
1035.62390,0.84043
1033.69537,0.84706
1031.76683,0.85951
1029.83829,0.87472
1027.90976,0.88925
1025.98122,0.90082
1024.05269,0.90850
1022.12415,0.91231
1020.19561,0.91250
1018.26708,0.90885
1016.33854,0.90029
1014.41000,0.88461
1012.48147,0.85819
1010.55293,0.81705
1008.62440,0.76033
1006.69586,0.69364
1004.76732,0.62833
1002.83879,0.57680
1000.91025,0.54783
998.98172,0.54335
997.05318,0.55938
995.12464,0.59286
993.19611,0.64315
991.26757,0.70310
989.33904,0.75791
987.41050,0.79626
985.48196,0.81592
983.55343,0.82024
981.62489,0.81407
979.69635,0.80220
977.76782,0.78917
975.83928,0.77908
973.91075,0.77538
971.98221,0.78043
970.05367,0.79477
968.12514,0.81672
966.19660,0.84281
964.26807,0.86917
962.33953,0.89272
960.41099,0.91182
958.48246,0.92622
956.55392,0.93668
954.62538,0.94420
952.69685,0.94951
950.76831,0.95320
948.83978,0.95580
946.91124,0.95764
944.98270,0.95873
943.05417,0.95891
941.12563,0.95802
939.19710,0.95575
937.26856,0.95142
935.34002,0.94447
933.41149,0.93577
931.48295,0.92801
929.55442,0.92387
927.62588,0.92309
925.69734,0.92186
923.76881,0.91512
921.84027,0.89964
919.91173,0.87673
917.98320,0.85379
916.05466,0.84178
914.12613,0.84814
912.19759,0.87011
910.26905,0.89644
908.34052,0.91708
906.41198,0.92924
904.48345,0.93483
902.55491,0.93629
900.62637,0.93526
898.69784,0.93277
896.76930,0.92948
894.84076,0.92561
892.91223,0.92112
890.98369,0.91621
889.05516,0.91117
887.12662,0.90609
885.19808,0.90109
883.26955,0.89652
881.34101,0.89277
879.41248,0.89007
877.48394,0.88848
875.55540,0.88785
873.62687,0.88792
871.69833,0.88838
869.76980,0.88877
867.84126,0.88875
865.91272,0.88864
863.98419,0.88931
862.05565,0.89161
860.12711,0.89599
858.19858,0.90225
856.27004,0.90976
854.34151,0.91781
852.41297,0.92566
850.48443,0.93279
848.55590,0.93903
846.62736,0.94430
844.69883,0.94863
842.77029,0.95209
840.84175,0.95484
838.91322,0.95704
836.98468,0.95881
835.05614,0.96031
833.12761,0.96160
831.19907,0.96261
829.27054,0.96325
827.34200,0.96369
825.41346,0.96393
823.48493,0.96373
821.55639,0.96297
819.62786,0.96162
817.69932,0.95942
815.77078,0.95574
813.84225,0.94960
811.91371,0.93978
809.98517,0.92523
808.05664,0.90619
806.12810,0.88487
804.19957,0.86455
802.27103,0.84848
800.34249,0.83913
798.41396,0.83758
796.48542,0.84307
794.55689,0.85204
792.62835,0.85827
790.69981,0.85590
788.77128,0.84352
786.84274,0.82512
784.91421,0.80728
782.98567,0.79582
781.05713,0.79371
779.12860,0.79987
777.20006,0.80931
775.27152,0.81678
773.34299,0.82117
771.41445,0.82479
769.48592,0.82957
767.55738,0.83510
765.62884,0.83976
763.70031,0.84356
761.77177,0.84927
759.84324,0.85976
757.91470,0.87482
755.98616,0.89166
754.05763,0.90720
752.12909,0.91921
750.20055,0.92689
748.27202,0.93073
746.34348,0.93085
744.41495,0.92684
742.48641,0.91999
740.55787,0.91328
738.62934,0.90929
736.70080,0.90963
734.77227,0.91507
732.84373,0.92470
730.91519,0.93586
728.98666,0.94578
727.05812,0.95338
725.12959,0.95862
723.20105,0.96082
721.27251,0.96072
719.34398,0.96182
717.41544,0.96469
715.48690,0.96635
713.55837,0.96613
711.62983,0.96513
709.70130,0.96353
707.77276,0.96071
705.84422,0.95533
703.91569,0.94539
701.98715,0.92915
700.05862,0.90676
698.13008,0.88261
696.20154,0.86539
694.27301,0.86127
692.34447,0.86746
690.41593,0.87689
688.48740,0.88598
686.55886,0.89517
684.63033,0.90495
682.70179,0.91460
680.77325,0.92315
678.84472,0.93032
676.91618,0.93638
674.98765,0.94132
673.05911,0.94290
671.13057,0.93791
669.20204,0.93125
667.27350,0.93967
665.34497,0.95010
663.41643,0.95192
661.48789,0.95022
659.55936,0.94850
657.63082,0.94714
655.70228,0.94563
653.77375,0.94252
651.84521,0.93313
649.91668,0.91437
647.98814,0.89755
646.05960,0.89996
644.13107,0.91904
642.20253,0.93768
640.27400,0.94788
638.34546,0.95248
636.41692,0.95470
634.48839,0.95556
632.55985,0.95543
630.63131,0.95487
628.70278,0.95405
626.77424,0.95278
624.84571,0.95111
622.91717,0.94926
620.98863,0.94625
619.06010,0.94130
617.13156,0.93746
615.20303,0.93753
613.27449,0.93955
611.34595,0.94192
609.41742,0.94479
607.48888,0.94753
605.56035,0.94947
603.63181,0.95055
601.70327,0.95090
599.77474,0.95065
597.84620,0.94999
595.91766,0.94888
593.98913,0.94703
592.06059,0.94478
590.13206,0.94251
588.20352,0.93994
586.27498,0.93720
584.34645,0.93515
582.41791,0.93402
580.48938,0.93341
578.56084,0.93313
576.63230,0.93262
574.70377,0.93111
572.77523,0.92854
570.84669,0.92507
568.91816,0.92073
566.98962,0.91643
565.06109,0.91326
563.13255,0.91112
561.20401,0.90924
559.27548,0.90711
557.34694,0.90470
555.41841,0.90278
553.48987,0.90209
551.56133,0.90211
549.63280,0.90166
547.70426,0.90007
545.77573,0.89713
543.84719,0.89283
541.91865,0.88644
539.99012,0.87671
538.06158,0.86352
536.13304,0.84737
534.20451,0.82955
532.27597,0.81304
530.34744,0.80108
528.41890,0.79566
526.49036,0.79774
524.56183,0.80590
522.63329,0.81550
520.70476,0.82620
518.77622,0.84191
516.84768,0.86395
514.91915,0.88529
512.99061,0.90039
511.06207,0.90818
509.13354,0.90721
507.20500,0.89585
505.27647,0.87613
503.34793,0.85363
501.41939,0.83868
499.49086,0.84351
497.56232,0.86409
495.63379,0.88793
493.70525,0.90654
491.77671,0.91899
489.84818,0.92694
487.91964,0.93182
485.99110,0.93513
484.06257,0.93820
482.13403,0.94113
480.20550,0.94263
478.27696,0.94212
476.34842,0.94038
474.41989,0.93774
472.49135,0.93299
470.56282,0.92724
468.63428,0.92302
466.70574,0.92057
464.77721,0.91899
462.84867,0.91688
460.92014,0.91475
458.99160,0.91412
457.06306,0.91519
455.13453,0.91702
453.20599,0.92002
451.27745,0.92462
449.34892,0.92932
447.42038,0.93414
445.49185,0.93920
443.56331,0.94294
441.63477,0.94465
439.70624,0.94507
437.77770,0.94597
435.84917,0.94818
433.92063,0.94999
431.99209,0.95058
430.06356,0.95078
428.13502,0.95000
426.20648,0.94814
424.27795,0.94699
422.34941,0.94683
420.42088,0.94614
418.49234,0.94785
416.56380,0.95197
414.63527,0.95403
412.70673,0.95426
410.77820,0.95325
408.84966,0.95322
406.92112,0.95489
404.99259,0.95748
403.06405,0.96125
401.13552,0.96439
399.20698,0.96168
