3997.85540,0.97974
3995.92686,0.97969
3993.99833,0.97956
3992.06979,0.97950
3990.14125,0.97958
3988.21272,0.97972
3986.28418,0.97980
3984.35565,0.97980
3982.42711,0.97980
3980.49857,0.97985
3978.57004,0.97980
3976.64150,0.97961
3974.71297,0.97949
3972.78443,0.97953
3970.85589,0.97960
3968.92736,0.97970
3966.99882,0.97976
3965.07029,0.97966
3963.14175,0.97954
3961.21321,0.97965
3959.28468,0.97980
3957.35614,0.97981
3955.42760,0.97982
3953.49907,0.97978
3951.57053,0.97939
3949.64200,0.97884
3947.71346,0.97867
3945.78492,0.97881
3943.85639,0.97890
3941.92785,0.97914
3939.99932,0.97945
3938.07078,0.97953
3936.14224,0.97938
3934.21371,0.97898
3932.28517,0.97858
3930.35663,0.97869
3928.42810,0.97898
3926.49956,0.97889
3924.57103,0.97867
3922.64249,0.97873
3920.71395,0.97870
3918.78542,0.97849
3916.85688,0.97871
3914.92835,0.97945
3912.99981,0.98011
3911.07127,0.98032
3909.14274,0.97995
3907.21420,0.97884
3905.28566,0.97713
3903.35713,0.97597
3901.42859,0.97608
3899.50006,0.97700
3897.57152,0.97817
3895.64298,0.97866
3893.71445,0.97815
3891.78591,0.97762
3889.85738,0.97798
3887.92884,0.97806
3886.00030,0.97745
3884.07177,0.97710
3882.14323,0.97717
3880.21470,0.97768
3878.28616,0.97848
3876.35762,0.97849
3874.42909,0.97765
3872.50055,0.97657
3870.57201,0.97590
3868.64348,0.97634
3866.71494,0.97684
3864.78641,0.97671
3862.85787,0.97712
3860.92933,0.97807
3859.00080,0.97825
3857.07226,0.97725
3855.14373,0.97517
3853.21519,0.97402
3851.28665,0.97623
3849.35812,0.97833
3847.42958,0.97912
3845.50104,0.97879
3843.57251,0.97774
3841.64397,0.97650
3839.71544,0.97540
3837.78690,0.97520
3835.85836,0.97613
3833.92983,0.97715
3832.00129,0.97794
3830.07276,0.97845
3828.14422,0.97845
3826.21568,0.97814
3824.28715,0.97758
3822.35861,0.97650
3820.43008,0.97595
3818.50154,0.97644
3816.57300,0.97711
3814.64447,0.97843
3812.71593,0.97960
3810.78739,0.97970
3808.85886,0.97881
3806.93032,0.97783
3805.00179,0.97743
3803.07325,0.97680
3801.14471,0.97640
3799.21618,0.97712
3797.28764,0.97796
3795.35911,0.97890
3793.43057,0.97979
3791.50203,0.98026
3789.57350,0.98035
3787.64496,0.98006
3785.71642,0.97957
3783.78789,0.97941
3781.85935,0.97939
3779.93082,0.97924
3778.00228,0.97956
3776.07374,0.98016
3774.14521,0.98027
3772.21667,0.97966
3770.28814,0.97878
3768.35960,0.97842
3766.43106,0.97864
3764.50253,0.97916
3762.57399,0.97930
3760.64546,0.97862
3758.71692,0.97796
3756.78838,0.97795
3754.85985,0.97749
3752.93131,0.97578
3751.00277,0.97382
3749.07424,0.97407
3747.14570,0.97492
3745.21717,0.97535
3743.28863,0.97601
3741.36009,0.97630
3739.43156,0.97560
3737.50302,0.97384
3735.57449,0.97205
3733.64595,0.97268
3731.71741,0.97479
3729.78888,0.97601
3727.86034,0.97598
3725.93180,0.97547
3724.00327,0.97554
3722.07473,0.97635
3720.14620,0.97746
3718.21766,0.97841
3716.28912,0.97868
3714.36059,0.97785
3712.43205,0.97602
3710.50352,0.97531
3708.57498,0.97667
3706.64644,0.97789
3704.71791,0.97819
3702.78937,0.97806
3700.86084,0.97832
3698.93230,0.97887
3697.00376,0.97913
3695.07523,0.97892
3693.14669,0.97790
3691.21815,0.97603
3689.28962,0.97526
3687.36108,0.97711
3685.43255,0.97895
3683.50401,0.97969
3681.57547,0.97941
3679.64694,0.97823
3677.71840,0.97639
3675.78987,0.97516
3673.86133,0.97578
3671.93279,0.97605
3670.00426,0.97626
3668.07572,0.97805
3666.14718,0.97973
3664.21865,0.98048
3662.29011,0.98075
3660.36158,0.98065
3658.43304,0.98001
3656.50450,0.97910
3654.57597,0.97850
3652.64743,0.97747
3650.71890,0.97525
3648.79036,0.97411
3646.86182,0.97643
3644.93329,0.97848
3643.00475,0.97933
3641.07622,0.97965
3639.14768,0.97973
3637.21914,0.97944
3635.29061,0.97875
3633.36207,0.97780
3631.43353,0.97650
3629.50500,0.97515
3627.57646,0.97578
3625.64793,0.97742
3623.71939,0.97797
3621.79085,0.97731
3619.86232,0.97624
3617.93378,0.97622
3616.00525,0.97679
3614.07671,0.97706
3612.14817,0.97726
3610.21964,0.97723
3608.29110,0.97725
3606.36256,0.97800
3604.43403,0.97862
3602.50549,0.97839
3600.57696,0.97785
3598.64842,0.97770
3596.71988,0.97766
3594.79135,0.97766
3592.86281,0.97796
3590.93428,0.97788
3589.00574,0.97699
3587.07720,0.97670
3585.14867,0.97799
3583.22013,0.97916
3581.29160,0.97957
3579.36306,0.97953
3577.43452,0.97939
3575.50599,0.97940
3573.57745,0.97949
3571.64891,0.97919
3569.72038,0.97810
3567.79184,0.97661
3565.86331,0.97653
3563.93477,0.97774
3562.00623,0.97856
3560.07770,0.97892
3558.14916,0.97918
3556.22063,0.97922
3554.29209,0.97898
3552.36355,0.97878
3550.43502,0.97865
3548.50648,0.97820
3546.57794,0.97768
3544.64941,0.97786
3542.72087,0.97860
3540.79234,0.97907
3538.86380,0.97898
3536.93526,0.97871
3535.00673,0.97867
3533.07819,0.97869
3531.14966,0.97845
3529.22112,0.97804
3527.29258,0.97772
3525.36405,0.97757
3523.43551,0.97768
3521.50697,0.97806
3519.57844,0.97834
3517.64990,0.97845
3515.72137,0.97853
3513.79283,0.97852
3511.86429,0.97829
3509.93576,0.97801
3508.00722,0.97793
3506.07869,0.97777
3504.15015,0.97742
3502.22161,0.97740
3500.29308,0.97775
3498.36454,0.97787
3496.43601,0.97770
3494.50747,0.97764
3492.57893,0.97774
3490.65040,0.97776
3488.72186,0.97768
3486.79332,0.97763
3484.86479,0.97751
3482.93625,0.97725
3481.00772,0.97719
3479.07918,0.97741
3477.15064,0.97761
3475.22211,0.97761
3473.29357,0.97753
3471.36504,0.97741
3469.43650,0.97724
3467.50796,0.97715
3465.57943,0.97718
3463.65089,0.97721
3461.72235,0.97716
3459.79382,0.97711
3457.86528,0.97715
3455.93675,0.97716
3454.00821,0.97713
3452.07967,0.97712
3450.15114,0.97698
3448.22260,0.97666
3446.29407,0.97655
3444.36553,0.97670
3442.43699,0.97684
3440.50846,0.97697
3438.57992,0.97710
3436.65139,0.97718
3434.72285,0.97717
3432.79431,0.97707
3430.86578,0.97703
3428.93724,0.97710
3427.00870,0.97714
3425.08017,0.97709
3423.15163,0.97695
3421.22310,0.97680
3419.29456,0.97686
3417.36602,0.97711
3415.43749,0.97721
3413.50895,0.97705
3411.58042,0.97690
3409.65188,0.97696
3407.72334,0.97709
3405.79481,0.97710
3403.86627,0.97703
3401.93773,0.97705
3400.00920,0.97710
3398.08066,0.97706
3396.15213,0.97696
3394.22359,0.97694
3392.29505,0.97699
3390.36652,0.97710
3388.43798,0.97723
3386.50945,0.97733
3384.58091,0.97741
3382.65237,0.97750
3380.72384,0.97759
3378.79530,0.97764
3376.86677,0.97768
3374.93823,0.97776
3373.00969,0.97783
3371.08116,0.97780
3369.15262,0.97772
3367.22408,0.97773
3365.29555,0.97783
3363.36701,0.97793
3361.43848,0.97795
3359.50994,0.97794
3357.58140,0.97797
3355.65287,0.97808
3353.72433,0.97822
3351.79580,0.97825
3349.86726,0.97822
3347.93872,0.97832
3346.01019,0.97850
3344.08165,0.97856
3342.15311,0.97855
3340.22458,0.97861
3338.29604,0.97865
3336.36751,0.97867
3334.43897,0.97873
3332.51043,0.97886
3330.58190,0.97900
3328.65336,0.97904
3326.72483,0.97902
3324.79629,0.97900
3322.86775,0.97896
3320.93922,0.97892
3319.01068,0.97895
3317.08215,0.97905
3315.15361,0.97914
3313.22507,0.97919
3311.29654,0.97927
3309.36800,0.97937
3307.43946,0.97943
3305.51093,0.97937
3303.58239,0.97930
3301.65386,0.97936
3299.72532,0.97949
3297.79678,0.97957
3295.86825,0.97959
3293.93971,0.97957
3292.01118,0.97951
3290.08264,0.97947
3288.15410,0.97950
3286.22557,0.97955
3284.29703,0.97958
3282.36849,0.97959
3280.43996,0.97961
3278.51142,0.97965
3276.58289,0.97968
3274.65435,0.97975
3272.72581,0.97986
3270.79728,0.97991
3268.86874,0.97989
3266.94021,0.97981
3265.01167,0.97969
3263.08313,0.97959
3261.15460,0.97961
3259.22606,0.97970
3257.29753,0.97975
3255.36899,0.97980
3253.44045,0.97990
3251.51192,0.97998
3249.58338,0.98006
3247.65484,0.98013
3245.72631,0.98010
3243.79777,0.98004
3241.86924,0.98002
3239.94070,0.98000
3238.01216,0.98003
3236.08363,0.98013
3234.15509,0.98014
3232.22656,0.98006
3230.29802,0.98007
3228.36948,0.98017
3226.44095,0.98019
3224.51241,0.98015
3222.58387,0.98014
3220.65534,0.98014
3218.72680,0.98011
3216.79827,0.98013
3214.86973,0.98023
3212.94119,0.98029
3211.01266,0.98023
3209.08412,0.98021
3207.15559,0.98031
3205.22705,0.98043
3203.29851,0.98046
3201.36998,0.98040
3199.44144,0.98036
3197.51290,0.98037
3195.58437,0.98040
3193.65583,0.98045
3191.72730,0.98050
3189.79876,0.98051
3187.87022,0.98052
3185.94169,0.98054
3184.01315,0.98060
3182.08462,0.98072
3180.15608,0.98080
3178.22754,0.98076
3176.29901,0.98073
3174.37047,0.98077
3172.44194,0.98083
3170.51340,0.98086
3168.58486,0.98084
3166.65633,0.98079
3164.72779,0.98083
3162.79925,0.98088
3160.87072,0.98092
3158.94218,0.98097
3157.01365,0.98103
3155.08511,0.98103
3153.15657,0.98098
3151.22804,0.98096
3149.29950,0.98106
3147.37097,0.98121
3145.44243,0.98129
3143.51389,0.98126
3141.58536,0.98121
3139.65682,0.98126
3137.72828,0.98129
3135.79975,0.98124
3133.87121,0.98121
3131.94268,0.98121
3130.01414,0.98119
3128.08560,0.98111
3126.15707,0.98101
3124.22853,0.98089
3122.30000,0.98087
3120.37146,0.98094
3118.44292,0.98101
3116.51439,0.98103
3114.58585,0.98101
3112.65732,0.98097
3110.72878,0.98102
3108.80024,0.98117
3106.87171,0.98129
3104.94317,0.98124
3103.01463,0.98111
3101.08610,0.98111
3099.15756,0.98120
3097.22903,0.98125
3095.30049,0.98126
3093.37195,0.98131
3091.44342,0.98134
3089.51488,0.98130
3087.58635,0.98127
3085.65781,0.98128
3083.72927,0.98126
3081.80074,0.98118
3079.87220,0.98107
3077.94366,0.98102
3076.01513,0.98105
3074.08659,0.98108
3072.15806,0.98100
3070.22952,0.98075
3068.30098,0.98045
3066.37245,0.98029
3064.44391,0.98030
3062.51538,0.98043
3060.58684,0.98059
3058.65830,0.98067
3056.72977,0.98068
3054.80123,0.98067
3052.87270,0.98068
3050.94416,0.98066
3049.01562,0.98063
3047.08709,0.98064
3045.15855,0.98062
3043.23001,0.98043
3041.30148,0.98004
3039.37294,0.97955
3037.44441,0.97910
3035.51587,0.97866
3033.58733,0.97810
3031.65880,0.97736
3029.73026,0.97643
3027.80173,0.97530
3025.87319,0.97394
3023.94465,0.97245
3022.01612,0.97100
3020.08758,0.96962
3018.15904,0.96826
3016.23051,0.96694
3014.30197,0.96582
3012.37344,0.96500
3010.44490,0.96427
3008.51636,0.96338
3006.58783,0.96225
3004.65929,0.96091
3002.73076,0.95929
3000.80222,0.95751
2998.87368,0.95604
2996.94515,0.95519
2995.01661,0.95510
2993.08808,0.95577
2991.15954,0.95676
2989.23100,0.95755
2987.30247,0.95801
2985.37393,0.95808
2983.44539,0.95777
2981.51686,0.95703
2979.58832,0.95574
2977.65979,0.95391
2975.73125,0.95172
2973.80271,0.94924
2971.87418,0.94653
2969.94564,0.94382
2968.01711,0.94131
2966.08857,0.93908
2964.16003,0.93715
2962.23150,0.93546
2960.30296,0.93410
2958.37442,0.93311
2956.44589,0.93240
2954.51735,0.93200
2952.58882,0.93202
2950.66028,0.93240
2948.73174,0.93300
2946.80321,0.93356
2944.87467,0.93372
2942.94614,0.93325
2941.01760,0.93215
2939.08906,0.93048
2937.16053,0.92836
2935.23199,0.92595
2933.30346,0.92334
2931.37492,0.92065
2929.44638,0.91801
2927.51785,0.91559
2925.58931,0.91356
2923.66077,0.91221
2921.73224,0.91175
2919.80370,0.91218
2917.87517,0.91325
2915.94663,0.91464
2914.01809,0.91612
2912.08956,0.91750
2910.16102,0.91872
2908.23249,0.91988
2906.30395,0.92105
2904.37541,0.92223
2902.44688,0.92346
2900.51834,0.92485
2898.58980,0.92644
2896.66127,0.92818
2894.73273,0.93006
2892.80420,0.93203
2890.87566,0.93401
2888.94712,0.93586
2887.01859,0.93750
2885.09005,0.93882
2883.16152,0.93975
2881.23298,0.94021
2879.30444,0.94013
2877.37591,0.93950
2875.44737,0.93851
2873.51883,0.93742
2871.59030,0.93654
2869.66176,0.93607
2867.73323,0.93602
2865.80469,0.93617
2863.87615,0.93629
2861.94762,0.93623
2860.01908,0.93591
2858.09055,0.93541
2856.16201,0.93505
2854.23347,0.93528
2852.30494,0.93646
2850.37640,0.93871
2848.44787,0.94174
2846.51933,0.94508
2844.59079,0.94833
2842.66226,0.95129
2840.73372,0.95385
2838.80518,0.95601
2836.87665,0.95784
2834.94811,0.95948
2833.01958,0.96107
2831.09104,0.96258
2829.16250,0.96393
2827.23397,0.96511
2825.30543,0.96621
2823.37690,0.96720
2821.44836,0.96803
2819.51982,0.96872
2817.59129,0.96930
2815.66275,0.96981
2813.73421,0.97022
2811.80568,0.97057
2809.87714,0.97090
2807.94861,0.97121
2806.02007,0.97152
2804.09153,0.97184
2802.16300,0.97216
2800.23446,0.97245
2798.30593,0.97275
2796.37739,0.97306
2794.44885,0.97333
2792.52032,0.97355
2790.59178,0.97371
2788.66325,0.97378
2786.73471,0.97380
2784.80617,0.97385
2782.87764,0.97406
2780.94910,0.97441
2779.02056,0.97474
2777.09203,0.97501
2775.16349,0.97532
2773.23496,0.97557
2771.30642,0.97567
2769.37788,0.97572
2767.44935,0.97580
2765.52081,0.97589
2763.59228,0.97597
2761.66374,0.97598
2759.73520,0.97595
2757.80667,0.97591
2755.87813,0.97588
2753.94959,0.97586
2752.02106,0.97586
2750.09252,0.97591
2748.16399,0.97599
2746.23545,0.97607
2744.30691,0.97614
2742.37838,0.97618
2740.44984,0.97615
2738.52131,0.97611
2736.59277,0.97607
2734.66423,0.97597
2732.73570,0.97585
2730.80716,0.97575
2728.87863,0.97569
2726.95009,0.97562
2725.02155,0.97548
2723.09302,0.97529
2721.16448,0.97514
2719.23594,0.97510
2717.30741,0.97517
2715.37887,0.97531
2713.45034,0.97549
2711.52180,0.97573
2709.59326,0.97605
2707.66473,0.97640
2705.73619,0.97663
2703.80766,0.97677
2701.87912,0.97692
2699.95058,0.97704
2698.02205,0.97704
2696.09351,0.97696
2694.16497,0.97690
2692.23644,0.97692
2690.30790,0.97692
2688.37937,0.97679
2686.45083,0.97657
2684.52229,0.97639
2682.59376,0.97634
2680.66522,0.97641
2678.73669,0.97650
2676.80815,0.97653
2674.87961,0.97652
2672.95108,0.97655
2671.02254,0.97666
2669.09401,0.97679
2667.16547,0.97687
2665.23693,0.97690
2663.30840,0.97693
2661.37986,0.97701
2659.45132,0.97707
2657.52279,0.97709
2655.59425,0.97715
2653.66572,0.97725
2651.73718,0.97737
2649.80864,0.97753
2647.88011,0.97774
2645.95157,0.97796
2644.02304,0.97812
2642.09450,0.97820
2640.16596,0.97827
2638.23743,0.97838
2636.30889,0.97850
2634.38035,0.97859
2632.45182,0.97867
2630.52328,0.97877
2628.59475,0.97889
2626.66621,0.97898
2624.73767,0.97900
2622.80914,0.97901
2620.88060,0.97905
2618.95207,0.97911
2617.02353,0.97918
2615.09499,0.97937
2613.16646,0.97960
2611.23792,0.97973
2609.30939,0.97977
2607.38085,0.97982
2605.45231,0.97983
2603.52378,0.97983
2601.59524,0.97989
2599.66670,0.97997
2597.73817,0.97996
2595.80963,0.97989
2593.88110,0.97979
2591.95256,0.97971
2590.02402,0.97972
2588.09549,0.97983
2586.16695,0.97998
2584.23842,0.98013
2582.30988,0.98022
2580.38134,0.98021
2578.45281,0.98023
2576.52427,0.98026
2574.59573,0.98017
2572.66720,0.98006
2570.73866,0.98009
2568.81013,0.98023
2566.88159,0.98038
2564.95305,0.98050
2563.02452,0.98048
2561.09598,0.98039
2559.16745,0.98036
2557.23891,0.98036
2555.31037,0.98039
2553.38184,0.98043
2551.45330,0.98045
2549.52476,0.98044
2547.59623,0.98042
2545.66769,0.98045
2543.73916,0.98054
2541.81062,0.98061
2539.88208,0.98064
2537.95355,0.98073
2536.02501,0.98085
2534.09648,0.98088
2532.16794,0.98083
2530.23940,0.98081
2528.31087,0.98081
2526.38233,0.98079
2524.45380,0.98075
2522.52526,0.98073
2520.59672,0.98072
2518.66819,0.98073
2516.73965,0.98076
2514.81111,0.98081
2512.88258,0.98090
2510.95404,0.98093
2509.02551,0.98092
2507.09697,0.98094
2505.16843,0.98090
2503.23990,0.98089
2501.31136,0.98097
2499.38283,0.98101
2497.45429,0.98102
2495.52575,0.98104
2493.59722,0.98108
2491.66868,0.98113
2489.74014,0.98120
2487.81161,0.98130
2485.88307,0.98142
2483.95454,0.98146
2482.02600,0.98140
2480.09746,0.98130
2478.16893,0.98126
2476.24039,0.98130
2474.31186,0.98134
2472.38332,0.98134
2470.45478,0.98135
2468.52625,0.98133
2466.59771,0.98119
2464.66918,0.98103
2462.74064,0.98101
2460.81210,0.98115
2458.88357,0.98132
2456.95503,0.98141
2455.02649,0.98148
2453.09796,0.98155
2451.16942,0.98153
2449.24089,0.98142
2447.31235,0.98133
2445.38381,0.98136
2443.45528,0.98140
2441.52674,0.98142
2439.59821,0.98145
2437.66967,0.98142
2435.74113,0.98133
2433.81260,0.98129
2431.88406,0.98134
2429.95552,0.98138
2428.02699,0.98139
2426.09845,0.98148
2424.16992,0.98155
2422.24138,0.98151
2420.31284,0.98149
2418.38431,0.98160
2416.45577,0.98171
2414.52724,0.98170
2412.59870,0.98166
2410.67016,0.98166
2408.74163,0.98166
2406.81309,0.98158
2404.88456,0.98144
2402.95602,0.98139
2401.02748,0.98144
2399.09895,0.98146
2397.17041,0.98147
2395.24187,0.98154
2393.31334,0.98154
2391.38480,0.98138
2389.45627,0.98114
2387.52773,0.98070
2385.59919,0.97976
2383.67066,0.97810
2381.74212,0.97576
2379.81359,0.97291
2377.88505,0.96952
2375.95651,0.96550
2374.02798,0.96100
2372.09944,0.95620
2370.17090,0.95099
2368.24237,0.94590
2366.31383,0.94188
2364.38530,0.93897
2362.45676,0.93673
2360.52822,0.93559
2358.59969,0.93643
2356.67115,0.93960
2354.74262,0.94467
2352.81408,0.95096
2350.88554,0.95654
2348.95701,0.95891
2347.02847,0.95728
2345.09994,0.95271
2343.17140,0.94870
2341.24286,0.94769
2339.31433,0.94855
2337.38579,0.94979
2335.45725,0.95096
2333.52872,0.95188
2331.60018,0.95254
2329.67165,0.95333
2327.74311,0.95441
2325.81457,0.95575
2323.88604,0.95730
2321.95750,0.95924
2320.02897,0.96173
2318.10043,0.96431
2316.17189,0.96641
2314.24336,0.96784
2312.31482,0.96885
2310.38628,0.96996
2308.45775,0.97135
2306.52921,0.97278
2304.60068,0.97408
2302.67214,0.97512
2300.74360,0.97587
2298.81507,0.97649
2296.88653,0.97708
2294.95800,0.97766
2293.02946,0.97823
2291.10092,0.97879
2289.17239,0.97933
2287.24385,0.97992
2285.31532,0.98059
2283.38678,0.98110
2281.45824,0.98129
2279.52971,0.98122
2277.60117,0.98108
2275.67263,0.98110
2273.74410,0.98144
2271.81556,0.98176
2269.88703,0.98175
2267.95849,0.98164
2266.02995,0.98169
2264.10142,0.98183
2262.17288,0.98198
2260.24435,0.98203
2258.31581,0.98218
2256.38727,0.98250
2254.45874,0.98252
2252.53020,0.98225
2250.60166,0.98239
2248.67313,0.98281
2246.74459,0.98288
2244.81606,0.98267
2242.88752,0.98261
2240.95898,0.98273
2239.03045,0.98283
2237.10191,0.98297
2235.17338,0.98324
2233.24484,0.98336
2231.31630,0.98326
2229.38777,0.98317
2227.45923,0.98317
2225.53070,0.98321
2223.60216,0.98337
2221.67362,0.98352
2219.74509,0.98353
2217.81655,0.98360
2215.88801,0.98385
2213.95948,0.98402
2212.03094,0.98396
2210.10241,0.98368
2208.17387,0.98336
2206.24533,0.98330
2204.31680,0.98347
2202.38826,0.98356
2200.45973,0.98364
2198.53119,0.98380
2196.60265,0.98386
2194.67412,0.98386
2192.74558,0.98397
2190.81704,0.98409
2188.88851,0.98426
2186.95997,0.98434
2185.03144,0.98415
2183.10290,0.98410
2181.17436,0.98425
2179.24583,0.98426
2177.31729,0.98414
2175.38876,0.98406
2173.46022,0.98405
2171.53168,0.98381
2169.60315,0.98327
2167.67461,0.98300
2165.74607,0.98318
2163.81754,0.98335
2161.88900,0.98349
2159.96047,0.98412
2158.03193,0.98505
2156.10339,0.98544
2154.17486,0.98506
2152.24632,0.98466
2150.31779,0.98491
2148.38925,0.98542
2146.46071,0.98544
2144.53218,0.98502
2142.60364,0.98467
2140.67511,0.98465
2138.74657,0.98492
2136.81803,0.98527
2134.88950,0.98555
2132.96096,0.98564
2131.03242,0.98545
2129.10389,0.98522
2127.17535,0.98511
2125.24682,0.98496
2123.31828,0.98483
2121.38974,0.98483
2119.46121,0.98483
2117.53267,0.98467
2115.60414,0.98447
2113.67560,0.98443
2111.74706,0.98445
2109.81853,0.98440
2107.88999,0.98436
2105.96145,0.98438
2104.03292,0.98438
2102.10438,0.98442
2100.17585,0.98457
2098.24731,0.98469
2096.31877,0.98460
2094.39024,0.98449
2092.46170,0.98464
2090.53317,0.98485
2088.60463,0.98481
2086.67609,0.98472
2084.74756,0.98474
2082.81902,0.98470
2080.89049,0.98453
2078.96195,0.98436
2077.03341,0.98434
2075.10488,0.98442
2073.17634,0.98458
2071.24780,0.98485
2069.31927,0.98504
2067.39073,0.98500
2065.46220,0.98483
2063.53366,0.98474
2061.60512,0.98470
2059.67659,0.98455
2057.74805,0.98446
2055.81952,0.98468
2053.89098,0.98485
2051.96244,0.98480
2050.03391,0.98503
2048.10537,0.98547
2046.17683,0.98561
2044.24830,0.98556
2042.31976,0.98545
2040.39123,0.98524
2038.46269,0.98531
2036.53415,0.98584
2034.60562,0.98645
2032.67708,0.98659
2030.74855,0.98649
2028.82001,0.98682
2026.89147,0.98742
2024.96294,0.98766
2023.03440,0.98737
2021.10587,0.98688
2019.17733,0.98657
2017.24879,0.98652
2015.32026,0.98670
2013.39172,0.98699
2011.46318,0.98727
2009.53465,0.98737
2007.60611,0.98718
2005.67758,0.98675
2003.74904,0.98632
2001.82050,0.98607
1999.89197,0.98588
1997.96343,0.98585
1996.03490,0.98586
1994.10636,0.98556
1992.17782,0.98533
1990.24929,0.98549
1988.32075,0.98557
1986.39221,0.98537
1984.46368,0.98517
1982.53514,0.98515
1980.60661,0.98538
1978.67807,0.98584
1976.74953,0.98621
1974.82100,0.98655
1972.89246,0.98699
1970.96393,0.98702
1969.03539,0.98640
1967.10685,0.98571
1965.17832,0.98560
1963.24978,0.98595
1961.32125,0.98651
1959.39271,0.98706
1957.46417,0.98713
1955.53564,0.98666
1953.60710,0.98615
1951.67856,0.98596
1949.75003,0.98614
1947.82149,0.98632
1945.89296,0.98599
1943.96442,0.98527
1942.03588,0.98503
1940.10735,0.98554
1938.17881,0.98597
1936.25028,0.98601
1934.32174,0.98600
1932.39320,0.98613
1930.46467,0.98631
1928.53613,0.98637
1926.60759,0.98614
1924.67906,0.98551
1922.75052,0.98489
1920.82199,0.98476
1918.89345,0.98492
1916.96491,0.98516
1915.03638,0.98541
1913.10784,0.98546
1911.17931,0.98534
1909.25077,0.98527
1907.32223,0.98538
1905.39370,0.98553
1903.46516,0.98563
1901.53663,0.98583
1899.60809,0.98600
1897.67955,0.98585
1895.75102,0.98555
1893.82248,0.98541
1891.89394,0.98524
1889.96541,0.98507
1888.03687,0.98529
1886.10834,0.98560
1884.17980,0.98575
1882.25126,0.98586
1880.32273,0.98591
1878.39419,0.98588
1876.46566,0.98582
1874.53712,0.98567
1872.60858,0.98526
1870.68005,0.98441
1868.75151,0.98373
1866.82297,0.98416
1864.89444,0.98506
1862.96590,0.98561
1861.03737,0.98579
1859.10883,0.98588
1857.18029,0.98602
1855.25176,0.98608
1853.32322,0.98605
1851.39469,0.98590
1849.46615,0.98547
1847.53761,0.98469
1845.60908,0.98388
1843.68054,0.98393
1841.75200,0.98492
1839.82347,0.98560
1837.89493,0.98573
1835.96640,0.98575
1834.03786,0.98559
1832.10932,0.98481
1830.18079,0.98385
1828.25225,0.98378
1826.32372,0.98422
1824.39518,0.98466
1822.46664,0.98518
1820.53811,0.98550
1818.60957,0.98560
1816.68104,0.98571
1814.75250,0.98564
1812.82396,0.98517
1810.89543,0.98471
1808.96689,0.98478
1807.03835,0.98512
1805.10982,0.98513
1803.18128,0.98461
1801.25275,0.98408
1799.32421,0.98409
1797.39567,0.98416
1795.46714,0.98368
1793.53860,0.98276
1791.61007,0.98265
1789.68153,0.98379
1787.75299,0.98466
1785.82446,0.98476
1783.89592,0.98446
1781.96738,0.98410
1780.03885,0.98397
1778.11031,0.98404
1776.18178,0.98361
1774.25324,0.98228
1772.32470,0.98105
1770.39617,0.98149
1768.46763,0.98271
1766.53910,0.98356
1764.61056,0.98359
1762.68202,0.98291
1760.75349,0.98230
1758.82495,0.98198
1756.89642,0.98158
1754.96788,0.98104
1753.03934,0.97981
1751.11081,0.97747
1749.18227,0.97526
1747.25373,0.97450
1745.32520,0.97421
1743.39666,0.97363
1741.46813,0.97288
1739.53959,0.97239
1737.61105,0.97213
1735.68252,0.97146
1733.75398,0.97082
1731.82545,0.97178
1729.89691,0.97330
1727.96837,0.97449
1726.03984,0.97508
1724.11130,0.97522
1722.18276,0.97510
1720.25423,0.97430
1718.32569,0.97252
1716.39716,0.97212
1714.46862,0.97458
1712.54008,0.97693
1710.61155,0.97811
1708.68301,0.97814
1706.75448,0.97746
1704.82594,0.97708
1702.89740,0.97713
1700.96887,0.97662
1699.04033,0.97565
1697.11180,0.97599
1695.18326,0.97808
1693.25472,0.97984
1691.32619,0.98013
1689.39765,0.97951
1687.46911,0.97852
1685.54058,0.97708
1683.61204,0.97629
1681.68351,0.97745
1679.75497,0.97854
1677.82643,0.97886
1675.89790,0.97848
1673.96936,0.97796
1672.04083,0.97744
1670.11229,0.97708
1668.18375,0.97808
1666.25522,0.97916
1664.32668,0.97918
1662.39814,0.97901
1660.46961,0.97953
1658.54107,0.97968
1656.61254,0.97861
1654.68400,0.97618
1652.75546,0.97429
1650.82693,0.97488
1648.89839,0.97460
1646.96986,0.97422
1645.04132,0.97603
1643.11278,0.97771
1641.18425,0.97797
1639.25571,0.97689
1637.32718,0.97455
1635.39864,0.97273
1633.47010,0.97343
1631.54157,0.97423
1629.61303,0.97446
1627.68449,0.97471
1625.75596,0.97497
1623.82742,0.97500
1621.89889,0.97535
1619.97035,0.97558
1618.04181,0.97510
1616.11328,0.97518
1614.18474,0.97643
1612.25621,0.97727
1610.32767,0.97744
1608.39913,0.97752
1606.47060,0.97784
1604.54206,0.97807
1602.61352,0.97811
1600.68499,0.97830
1598.75645,0.97865
1596.82792,0.97886
1594.89938,0.97885
1592.97084,0.97867
1591.04231,0.97815
1589.11377,0.97710
1587.18524,0.97557
1585.25670,0.97360
1583.32816,0.97149
1581.39963,0.96968
1579.47109,0.96837
1577.54256,0.96817
1575.61402,0.97101
1573.68548,0.97455
1571.75695,0.97596
1569.82841,0.97613
1567.89987,0.97599
1565.97134,0.97472
1564.04280,0.97180
1562.11427,0.96809
1560.18573,0.96278
1558.25719,0.95661
1556.32866,0.95812
1554.40012,0.96295
1552.47159,0.96793
1550.54305,0.97198
1548.61451,0.97479
1546.68598,0.97566
1544.75744,0.97444
1542.82890,0.97205
1540.90037,0.97100
1538.97183,0.97405
1537.04330,0.97641
1535.11476,0.97664
1533.18622,0.97644
1531.25769,0.97692
1529.32915,0.97688
1527.40062,0.97580
1525.47208,0.97444
1523.54354,0.97309
1521.61501,0.97185
1519.68647,0.97177
1517.75793,0.97166
1515.82940,0.97104
1513.90086,0.97000
1511.97233,0.96735
1510.04379,0.96223
1508.11525,0.95028
1506.18672,0.92729
1504.25818,0.91263
1502.32965,0.90295
1500.40111,0.89475
1498.47257,0.89388
1496.54404,0.90451
1494.61550,0.91575
1492.68697,0.91921
1490.75843,0.91415
1488.82989,0.90201
1486.90136,0.89308
1484.97282,0.89057
1483.04428,0.89216
1481.11575,0.89715
1479.18721,0.90360
1477.25868,0.90860
1475.33014,0.91038
1473.40160,0.90938
1471.47307,0.90945
1469.54453,0.91098
1467.61600,0.91174
1465.68746,0.91187
1463.75892,0.91263
1461.83039,0.91319
1459.90185,0.91153
1457.97331,0.90510
1456.04478,0.89704
1454.11624,0.89499
1452.18771,0.89542
1450.25917,0.89684
1448.33063,0.90029
1446.40210,0.90633
1444.47356,0.91286
1442.54503,0.91812
1440.61649,0.92110
1438.68795,0.92151
1436.75942,0.92093
1434.83088,0.92236
1432.90235,0.92582
1430.97381,0.93083
1429.04527,0.93712
1427.11674,0.94229
1425.18820,0.94524
1423.25966,0.94647
1421.33113,0.94616
1419.40259,0.94435
1417.47406,0.94244
1415.54552,0.94139
1413.61698,0.93990
1411.68845,0.93754
1409.75991,0.93543
1407.83138,0.93489
1405.90284,0.93667
1403.97430,0.94048
1402.04577,0.94376
1400.11723,0.94457
1398.18869,0.94236
1396.26016,0.93770
1394.33162,0.93377
1392.40309,0.93480
1390.47455,0.94016
1388.54601,0.94750
1386.61748,0.95415
1384.68894,0.95680
1382.76041,0.95518
1380.83187,0.95061
1378.90333,0.94532
1376.97480,0.94148
1375.04626,0.93948
1373.11773,0.93891
1371.18919,0.93870
1369.26065,0.93812
1367.33212,0.93777
1365.40358,0.93796
1363.47504,0.93851
1361.54651,0.94001
1359.61797,0.94182
1357.68944,0.94195
1355.76090,0.93943
1353.83236,0.93518
1351.90383,0.93092
1349.97529,0.92723
1348.04676,0.92337
1346.11822,0.91752
1344.18968,0.90883
1342.26115,0.90070
1340.33261,0.89951
1338.40407,0.90740
1336.47554,0.91728
1334.54700,0.92415
1332.61847,0.92862
1330.68993,0.93221
1328.76139,0.93550
1326.83286,0.93805
1324.90432,0.93952
1322.97579,0.94013
1321.04725,0.94007
1319.11871,0.93983
1317.19018,0.94057
1315.26164,0.94269
1313.33311,0.94579
1311.40457,0.94930
1309.47603,0.95263
1307.54750,0.95557
1305.61896,0.95810
1303.69042,0.96009
1301.76189,0.96149
1299.83335,0.96234
1297.90482,0.96275
1295.97628,0.96285
1294.04774,0.96274
1292.11921,0.96238
1290.19067,0.96171
1288.26214,0.96062
1286.33360,0.95896
1284.40506,0.95659
1282.47653,0.95359
1280.54799,0.95056
1278.61945,0.94813
1276.69092,0.94620
1274.76238,0.94394
1272.83385,0.94126
1270.90531,0.94017
1268.97677,0.94254
1267.04824,0.94727
1265.11970,0.95187
1263.19117,0.95505
1261.26263,0.95692
1259.33409,0.95778
1257.40556,0.95746
1255.47702,0.95550
1253.54849,0.95180
1251.61995,0.94707
1249.69141,0.94260
1247.76288,0.93934
1245.83434,0.93780
1243.90580,0.93849
1241.97727,0.94146
1240.04873,0.94515
1238.12020,0.94635
1236.19166,0.94194
1234.26312,0.93277
1232.33459,0.92499
1230.40605,0.92346
1228.47752,0.92674
1226.54898,0.93137
1224.62044,0.93604
1222.69191,0.93981
1220.76337,0.94031
1218.83483,0.93534
1216.90630,0.92662
1214.97776,0.91917
1213.04923,0.91541
1211.12069,0.91463
1209.19215,0.91670
1207.26362,0.92165
1205.33508,0.92735
1203.40655,0.93006
1201.47801,0.92712
1199.54947,0.91835
1197.62094,0.90563
1195.69240,0.89203
1193.76387,0.88092
1191.83533,0.87413
1189.90679,0.87028
1187.97826,0.86617
1186.04972,0.86032
1184.12118,0.85407
1182.19265,0.84915
1180.26411,0.84582
1178.33558,0.84369
1176.40704,0.84241
1174.47850,0.84177
1172.54997,0.84166
1170.62143,0.84237
1168.69290,0.84477
1166.76436,0.84940
1164.83582,0.85549
1162.90729,0.86148
1160.97875,0.86686
1159.05021,0.87295
1157.12168,0.88098
1155.19314,0.89028
1153.26461,0.89926
1151.33607,0.90696
1149.40753,0.91313
1147.47900,0.91785
1145.55046,0.92141
1143.62193,0.92411
1141.69339,0.92604
1139.76485,0.92701
1137.83632,0.92686
1135.90778,0.92520
1133.97924,0.92079
1132.05071,0.91238
1130.12217,0.90106
1128.19364,0.89092
1126.26510,0.88579
1124.33656,0.88592
1122.40803,0.88936
1120.47949,0.89446
1118.55096,0.89919
1116.62242,0.90113
1114.69388,0.90058
1112.76535,0.90140
1110.83681,0.90602
1108.90828,0.91269
1106.97974,0.91916
1105.05120,0.92489
1103.12267,0.92973
1101.19413,0.93307
1099.26559,0.93396
1097.33706,0.93118
1095.40852,0.92401
1093.47999,0.91429
1091.55145,0.90717
1089.62291,0.90738
1087.69438,0.91443
1085.76584,0.92306
1083.83731,0.92805
1081.90877,0.92689
1079.98023,0.91908
1078.05170,0.90665
1076.12316,0.89574
1074.19462,0.89369
1072.26609,0.90206
1070.33755,0.91546
1068.40902,0.92768
1066.48048,0.93616
1064.55194,0.94132
1062.62341,0.94418
1060.69487,0.94537
1058.76634,0.94521
1056.83780,0.94392
1054.90926,0.94180
1052.98073,0.93919
1051.05219,0.93606
1049.12366,0.93178
1047.19512,0.92598
1045.26658,0.92047
1043.33805,0.91869
1041.40951,0.92161
1039.48097,0.92625
1037.55244,0.92935
1035.62390,0.93002
1033.69537,0.92877
1031.76683,0.92588
1029.83829,0.92081
1027.90976,0.91272
1025.98122,0.90202
1024.05269,0.89082
1022.12415,0.88141
1020.19561,0.87480
1018.26708,0.87120
1016.33854,0.87035
1014.41000,0.87017
1012.48147,0.86742
1010.55293,0.86290
1008.62440,0.86354
1006.69586,0.87420
1004.76732,0.89113
1002.83879,0.90734
1000.91025,0.91970
998.98172,0.92861
997.05318,0.93518
995.12464,0.94011
993.19611,0.94387
991.26757,0.94669
989.33904,0.94870
987.41050,0.95009
985.48196,0.95102
983.55343,0.95162
981.62489,0.95203
979.69635,0.95242
977.76782,0.95300
975.83928,0.95384
973.91075,0.95482
971.98221,0.95579
970.05367,0.95672
968.12514,0.95753
966.19660,0.95825
964.26807,0.95887
962.33953,0.95937
960.41099,0.95978
958.48246,0.96011
956.55392,0.96023
954.62538,0.96011
952.69685,0.95993
950.76831,0.95982
948.83978,0.95981
946.91124,0.95972
944.98270,0.95917
943.05417,0.95779
941.12563,0.95519
939.19710,0.95117
937.26856,0.94615
935.34002,0.94145
933.41149,0.93835
931.48295,0.93686
929.55442,0.93601
927.62588,0.93477
925.69734,0.93266
923.76881,0.92987
921.84027,0.92645
919.91173,0.92200
917.98320,0.91660
916.05466,0.91137
914.12613,0.90754
912.19759,0.90558
910.26905,0.90479
908.34052,0.90381
906.41198,0.90208
904.48345,0.90035
902.55491,0.89967
900.62637,0.90069
898.69784,0.90363
896.76930,0.90831
894.84076,0.91410
892.91223,0.92004
890.98369,0.92535
889.05516,0.92973
887.12662,0.93325
885.19808,0.93616
883.26955,0.93876
881.34101,0.94112
879.41248,0.94307
877.48394,0.94449
875.55540,0.94541
873.62687,0.94604
871.69833,0.94645
869.76980,0.94607
867.84126,0.94476
865.91272,0.94408
863.98419,0.94540
862.05565,0.94785
860.12711,0.94989
858.19858,0.95110
856.27004,0.95190
854.34151,0.95287
852.41297,0.95444
850.48443,0.95656
848.55590,0.95879
846.62736,0.96074
844.69883,0.96226
842.77029,0.96335
840.84175,0.96407
838.91322,0.96446
836.98468,0.96454
835.05614,0.96445
833.12761,0.96426
831.19907,0.96382
829.27054,0.96321
827.34200,0.96268
825.41346,0.96222
823.48493,0.96151
821.55639,0.96039
819.62786,0.95866
817.69932,0.95552
815.77078,0.94915
813.84225,0.93855
811.91371,0.92739
809.98517,0.92115
808.05664,0.92014
806.12810,0.92146
804.19957,0.92380
802.27103,0.92623
800.34249,0.92841
798.41396,0.93216
796.48542,0.93828
794.55689,0.94433
792.62835,0.94726
790.69981,0.94587
788.77128,0.94141
786.84274,0.93704
784.91421,0.93576
782.98567,0.93667
781.05713,0.93491
779.12860,0.92850
777.20006,0.92379
775.27152,0.92785
773.34299,0.93793
771.41445,0.94615
769.48592,0.94949
767.55738,0.94988
765.62884,0.94975
763.70031,0.95036
761.77177,0.95197
759.84324,0.95343
757.91470,0.95347
755.98616,0.95307
754.05763,0.95379
752.12909,0.95477
750.20055,0.95381
748.27202,0.95101
746.34348,0.94962
744.41495,0.95178
742.48641,0.95585
740.55787,0.95910
738.62934,0.96062
736.70080,0.96076
734.77227,0.96001
732.84373,0.95895
730.91519,0.95817
728.98666,0.95785
727.05812,0.95773
725.12959,0.95728
723.20105,0.95612
721.27251,0.95437
719.34398,0.95259
717.41544,0.95103
715.48690,0.95004
713.55837,0.95052
711.62983,0.95247
709.70130,0.95465
707.77276,0.95645
705.84422,0.95793
703.91569,0.95885
701.98715,0.95927
700.05862,0.95989
698.13008,0.96100
696.20154,0.96220
694.27301,0.96305
692.34447,0.96341
690.41593,0.96351
688.48740,0.96385
686.55886,0.96466
684.63033,0.96565
682.70179,0.96645
680.77325,0.96690
678.84472,0.96709
676.91618,0.96708
674.98765,0.96657
673.05911,0.96466
671.13057,0.96056
669.20204,0.95539
667.27350,0.95533
665.34497,0.95915
663.41643,0.96149
661.48789,0.96206
659.55936,0.96164
657.63082,0.96135
655.70228,0.96036
653.77375,0.95643
651.84521,0.95160
649.91668,0.95144
647.98814,0.95625
646.05960,0.96077
644.13107,0.96181
642.20253,0.95957
640.27400,0.95533
638.34546,0.95129
636.41692,0.94995
634.48839,0.95197
632.55985,0.95558
630.63131,0.95880
628.70278,0.96066
626.77424,0.96050
624.84571,0.95801
622.91717,0.95259
620.98863,0.94181
619.06010,0.92213
617.13156,0.89433
615.20303,0.86762
613.27449,0.85080
611.34595,0.84526
609.41742,0.84891
607.48888,0.85809
605.56035,0.86805
603.63181,0.87602
601.70327,0.88249
599.77474,0.88922
597.84620,0.89694
595.91766,0.90497
593.98913,0.91260
592.06059,0.91976
590.13206,0.92629
588.20352,0.93135
586.27498,0.93449
584.34645,0.93608
582.41791,0.93692
580.48938,0.93745
578.56084,0.93689
576.63230,0.93264
574.70377,0.92108
572.77523,0.90448
570.84669,0.89386
568.91816,0.89825
566.98962,0.91333
565.06109,0.92840
563.13255,0.93867
561.20401,0.94445
559.27548,0.94714
557.34694,0.94738
555.41841,0.94556
553.48987,0.94327
551.56133,0.94202
549.63280,0.94203
547.70426,0.94335
545.77573,0.94580
543.84719,0.94844
541.91865,0.95057
539.99012,0.95214
538.06158,0.95309
536.13304,0.95313
534.20451,0.95222
532.27597,0.95020
530.34744,0.94603
528.41890,0.93986
526.49036,0.93503
524.56183,0.93440
522.63329,0.93517
520.70476,0.93269
518.77622,0.92442
516.84768,0.91154
514.91915,0.89895
512.99061,0.88910
511.06207,0.88182
509.13354,0.87788
507.20500,0.87919
505.27647,0.88645
503.34793,0.89756
501.41939,0.90934
499.49086,0.91877
497.56232,0.92568
495.63379,0.93132
493.70525,0.93576
491.77671,0.93834
489.84818,0.93884
487.91964,0.93775
485.99110,0.93557
484.06257,0.93253
482.13403,0.92832
480.20550,0.92353
478.27696,0.92012
476.34842,0.91964
474.41989,0.92188
472.49135,0.92579
470.56282,0.92948
468.63428,0.93209
466.70574,0.93472
464.77721,0.93753
462.84867,0.94006
460.92014,0.94221
458.99160,0.94378
457.06306,0.94534
455.13453,0.94735
453.20599,0.94939
451.27745,0.95123
449.34892,0.95255
447.42038,0.95326
445.49185,0.95345
443.56331,0.95355
441.63477,0.95399
439.70624,0.95404
437.77770,0.95321
435.84917,0.95226
433.92063,0.95156
431.99209,0.95104
430.06356,0.95095
428.13502,0.95119
426.20648,0.95094
424.27795,0.94957
422.34941,0.94803
420.42088,0.94688
418.49234,0.94666
416.56380,0.94906
414.63527,0.95109
412.70673,0.95139
410.77820,0.95206
408.84966,0.95411
406.92112,0.95504
404.99259,0.95306
403.06405,0.94947
401.13552,0.94524
399.20698,0.94046
