3997.85540,0.95491
3995.92686,0.95493
3993.99833,0.95484
3992.06979,0.95479
3990.14125,0.95487
3988.21272,0.95494
3986.28418,0.95487
3984.35565,0.95485
3982.42711,0.95497
3980.49857,0.95510
3978.57004,0.95511
3976.64150,0.95504
3974.71297,0.95501
3972.78443,0.95501
3970.85589,0.95503
3968.92736,0.95505
3966.99882,0.95503
3965.07029,0.95496
3963.14175,0.95495
3961.21321,0.95505
3959.28468,0.95516
3957.35614,0.95521
3955.42760,0.95528
3953.49907,0.95527
3951.57053,0.95503
3949.64200,0.95466
3947.71346,0.95451
3945.78492,0.95459
3943.85639,0.95468
3941.92785,0.95482
3939.99932,0.95502
3938.07078,0.95514
3936.14224,0.95513
3934.21371,0.95495
3932.28517,0.95472
3930.35663,0.95475
3928.42810,0.95487
3926.49956,0.95482
3924.57103,0.95473
3922.64249,0.95475
3920.71395,0.95471
3918.78542,0.95454
3916.85688,0.95454
3914.92835,0.95489
3912.99981,0.95531
3911.07127,0.95551
3909.14274,0.95545
3907.21420,0.95508
3905.28566,0.95429
3903.35713,0.95352
3901.42859,0.95343
3899.50006,0.95381
3897.57152,0.95439
3895.64298,0.95481
3893.71445,0.95476
3891.78591,0.95436
3889.85738,0.95424
3887.92884,0.95424
3886.00030,0.95396
3884.07177,0.95382
3882.14323,0.95389
3880.21470,0.95400
3878.28616,0.95440
3876.35762,0.95466
3874.42909,0.95443
3872.50055,0.95389
3870.57201,0.95343
3868.64348,0.95356
3866.71494,0.95399
3864.78641,0.95404
3862.85787,0.95403
3860.92933,0.95439
3859.00080,0.95466
3857.07226,0.95433
3855.14373,0.95310
3853.21519,0.95198
3851.28665,0.95312
3849.35812,0.95456
3847.42958,0.95526
3845.50104,0.95526
3843.57251,0.95478
3841.64397,0.95420
3839.71544,0.95372
3837.78690,0.95350
3835.85836,0.95370
3833.92983,0.95408
3832.00129,0.95451
3830.07276,0.95493
3828.14422,0.95514
3826.21568,0.95508
3824.28715,0.95480
3822.35861,0.95414
3820.43008,0.95353
3818.50154,0.95365
3816.57300,0.95388
3814.64447,0.95448
3812.71593,0.95528
3810.78739,0.95559
3808.85886,0.95524
3806.93032,0.95464
3805.00179,0.95442
3803.07325,0.95423
3801.14471,0.95398
3799.21618,0.95431
3797.28764,0.95476
3795.35911,0.95523
3793.43057,0.95579
3791.50203,0.95617
3789.57350,0.95626
3787.64496,0.95613
3785.71642,0.95586
3783.78789,0.95575
3781.85935,0.95588
3779.93082,0.95595
3778.00228,0.95606
3776.07374,0.95628
3774.14521,0.95638
3772.21667,0.95615
3770.28814,0.95557
3768.35960,0.95518
3766.43106,0.95529
3764.50253,0.95561
3762.57399,0.95576
3760.64546,0.95551
3758.71692,0.95516
3756.78838,0.95514
3754.85985,0.95501
3752.93131,0.95417
3751.00277,0.95283
3749.07424,0.95279
3747.14570,0.95346
3745.21717,0.95365
3743.28863,0.95379
3741.36009,0.95417
3739.43156,0.95414
3737.50302,0.95324
3735.57449,0.95179
3733.64595,0.95147
3731.71741,0.95242
3729.78888,0.95329
3727.86034,0.95357
3725.93180,0.95351
3724.00327,0.95370
3722.07473,0.95421
3720.14620,0.95479
3718.21766,0.95535
3716.28912,0.95571
3714.36059,0.95559
3712.43205,0.95471
3710.50352,0.95385
3708.57498,0.95417
3706.64644,0.95481
3704.71791,0.95512
3702.78937,0.95515
3700.86084,0.95525
3698.93230,0.95561
3697.00376,0.95601
3695.07523,0.95614
3693.14669,0.95577
3691.21815,0.95493
3689.28962,0.95436
3687.36108,0.95492
3685.43255,0.95583
3683.50401,0.95642
3681.57547,0.95650
3679.64694,0.95605
3677.71840,0.95517
3675.78987,0.95438
3673.86133,0.95459
3671.93279,0.95485
3670.00426,0.95499
3668.07572,0.95595
3666.14718,0.95688
3664.21865,0.95729
3662.29011,0.95753
3660.36158,0.95771
3658.43304,0.95746
3656.50450,0.95677
3654.57597,0.95630
3652.64743,0.95593
3650.71890,0.95489
3648.79036,0.95412
3646.86182,0.95536
3644.93329,0.95659
3643.00475,0.95708
3641.07622,0.95719
3639.14768,0.95716
3637.21914,0.95697
3635.29061,0.95660
3633.36207,0.95622
3631.43353,0.95579
3629.50500,0.95507
3627.57646,0.95504
3625.64793,0.95581
3623.71939,0.95622
3621.79085,0.95604
3619.86232,0.95557
3617.93378,0.95563
3616.00525,0.95613
3614.07671,0.95630
3612.14817,0.95609
3610.21964,0.95577
3608.29110,0.95554
3606.36256,0.95584
3604.43403,0.95638
3602.50549,0.95654
3600.57696,0.95643
3598.64842,0.95640
3596.71988,0.95629
3594.79135,0.95609
3592.86281,0.95619
3590.93428,0.95638
3589.00574,0.95621
3587.07720,0.95604
3585.14867,0.95651
3583.22013,0.95716
3581.29160,0.95761
3579.36306,0.95785
3577.43452,0.95794
3575.50599,0.95798
3573.57745,0.95792
3571.64891,0.95770
3569.72038,0.95729
3567.79184,0.95673
3565.86331,0.95663
3563.93477,0.95712
3562.00623,0.95752
3560.07770,0.95772
3558.14916,0.95786
3556.22063,0.95791
3554.29209,0.95790
3552.36355,0.95786
3550.43502,0.95780
3548.50648,0.95769
3546.57794,0.95753
3544.64941,0.95752
3542.72087,0.95774
3540.79234,0.95797
3538.86380,0.95805
3536.93526,0.95800
3535.00673,0.95793
3533.07819,0.95795
3531.14966,0.95797
3529.22112,0.95784
3527.29258,0.95766
3525.36405,0.95763
3523.43551,0.95772
3521.50697,0.95784
3519.57844,0.95793
3517.64990,0.95796
3515.72137,0.95803
3513.79283,0.95816
3511.86429,0.95818
3509.93576,0.95801
3508.00722,0.95788
3506.07869,0.95789
3504.15015,0.95791
3502.22161,0.95802
3500.29308,0.95816
3498.36454,0.95809
3496.43601,0.95794
3494.50747,0.95797
3492.57893,0.95813
3490.65040,0.95818
3488.72186,0.95812
3486.79332,0.95812
3484.86479,0.95815
3482.93625,0.95808
3481.00772,0.95801
3479.07918,0.95809
3477.15064,0.95825
3475.22211,0.95835
3473.29357,0.95835
3471.36504,0.95823
3469.43650,0.95809
3467.50796,0.95808
3465.57943,0.95818
3463.65089,0.95832
3461.72235,0.95844
3459.79382,0.95855
3457.86528,0.95862
3455.93675,0.95862
3454.00821,0.95858
3452.07967,0.95856
3450.15114,0.95846
3448.22260,0.95828
3446.29407,0.95819
3444.36553,0.95830
3442.43699,0.95846
3440.50846,0.95860
3438.57992,0.95867
3436.65139,0.95870
3434.72285,0.95873
3432.79431,0.95876
3430.86578,0.95874
3428.93724,0.95873
3427.00870,0.95877
3425.08017,0.95882
3423.15163,0.95880
3421.22310,0.95877
3419.29456,0.95886
3417.36602,0.95901
3415.43749,0.95903
3413.50895,0.95891
3411.58042,0.95881
3409.65188,0.95888
3407.72334,0.95898
3405.79481,0.95895
3403.86627,0.95888
3401.93773,0.95889
3400.00920,0.95893
3398.08066,0.95890
3396.15213,0.95883
3394.22359,0.95875
3392.29505,0.95867
3390.36652,0.95867
3388.43798,0.95877
3386.50945,0.95888
3384.58091,0.95893
3382.65237,0.95893
3380.72384,0.95891
3378.79530,0.95892
3376.86677,0.95896
3374.93823,0.95901
3373.00969,0.95901
3371.08116,0.95897
3369.15262,0.95893
3367.22408,0.95892
3365.29555,0.95895
3363.36701,0.95898
3361.43848,0.95894
3359.50994,0.95891
3357.58140,0.95895
3355.65287,0.95899
3353.72433,0.95902
3351.79580,0.95901
3349.86726,0.95894
3347.93872,0.95892
3346.01019,0.95899
3344.08165,0.95902
3342.15311,0.95903
3340.22458,0.95906
3338.29604,0.95908
3336.36751,0.95911
3334.43897,0.95914
3332.51043,0.95917
3330.58190,0.95919
3328.65336,0.95918
3326.72483,0.95913
3324.79629,0.95910
3322.86775,0.95911
3320.93922,0.95914
3319.01068,0.95918
3317.08215,0.95924
3315.15361,0.95928
3313.22507,0.95928
3311.29654,0.95933
3309.36800,0.95941
3307.43946,0.95945
3305.51093,0.95941
3303.58239,0.95926
3301.65386,0.95907
3299.72532,0.95899
3297.79678,0.95907
3295.86825,0.95918
3293.93971,0.95916
3292.01118,0.95888
3290.08264,0.95845
3288.15410,0.95809
3286.22557,0.95789
3284.29703,0.95784
3282.36849,0.95795
3280.43996,0.95821
3278.51142,0.95850
3276.58289,0.95873
3274.65435,0.95888
3272.72581,0.95904
3270.79728,0.95920
3268.86874,0.95918
3266.94021,0.95901
3265.01167,0.95889
3263.08313,0.95886
3261.15460,0.95887
3259.22606,0.95896
3257.29753,0.95913
3255.36899,0.95923
3253.44045,0.95920
3251.51192,0.95919
3249.58338,0.95936
3247.65484,0.95960
3245.72631,0.95970
3243.79777,0.95964
3241.86924,0.95955
3239.94070,0.95947
3238.01216,0.95950
3236.08363,0.95966
3234.15509,0.95974
3232.22656,0.95968
3230.29802,0.95963
3228.36948,0.95965
3226.44095,0.95970
3224.51241,0.95979
3222.58387,0.95990
3220.65534,0.95990
3218.72680,0.95979
3216.79827,0.95973
3214.86973,0.95980
3212.94119,0.95984
3211.01266,0.95975
3209.08412,0.95969
3207.15559,0.95978
3205.22705,0.95996
3203.29851,0.96008
3201.36998,0.96009
3199.44144,0.96005
3197.51290,0.95998
3195.58437,0.95992
3193.65583,0.95993
3191.72730,0.95991
3189.79876,0.95986
3187.87022,0.95988
3185.94169,0.95990
3184.01315,0.95985
3182.08462,0.95984
3180.15608,0.95988
3178.22754,0.95989
3176.29901,0.95986
3174.37047,0.95981
3172.44194,0.95978
3170.51340,0.95979
3168.58486,0.95974
3166.65633,0.95968
3164.72779,0.95968
3162.79925,0.95963
3160.87072,0.95958
3158.94218,0.95971
3157.01365,0.95994
3155.08511,0.96005
3153.15657,0.95998
3151.22804,0.95992
3149.29950,0.95997
3147.37097,0.96006
3145.44243,0.96013
3143.51389,0.96015
3141.58536,0.96012
3139.65682,0.96008
3137.72828,0.96009
3135.79975,0.96008
3133.87121,0.96004
3131.94268,0.95998
3130.01414,0.95987
3128.08560,0.95975
3126.15707,0.95966
3124.22853,0.95956
3122.30000,0.95953
3120.37146,0.95955
3118.44292,0.95954
3116.51439,0.95949
3114.58585,0.95938
3112.65732,0.95925
3110.72878,0.95923
3108.80024,0.95934
3106.87171,0.95944
3104.94317,0.95944
3103.01463,0.95942
3101.08610,0.95942
3099.15756,0.95940
3097.22903,0.95933
3095.30049,0.95928
3093.37195,0.95933
3091.44342,0.95944
3089.51488,0.95946
3087.58635,0.95935
3085.65781,0.95924
3083.72927,0.95919
3081.80074,0.95915
3079.87220,0.95915
3077.94366,0.95916
3076.01513,0.95900
3074.08659,0.95866
3072.15806,0.95835
3070.22952,0.95816
3068.30098,0.95801
3066.37245,0.95777
3064.44391,0.95742
3062.51538,0.95712
3060.58684,0.95703
3058.65830,0.95714
3056.72977,0.95730
3054.80123,0.95733
3052.87270,0.95732
3050.94416,0.95721
3049.01562,0.95695
3047.08709,0.95687
3045.15855,0.95713
3043.23001,0.95735
3041.30148,0.95714
3039.37294,0.95658
3037.44441,0.95633
3035.51587,0.95661
3033.58733,0.95672
3031.65880,0.95626
3029.73026,0.95561
3027.80173,0.95516
3025.87319,0.95497
3023.94465,0.95480
3022.01612,0.95455
3020.08758,0.95427
3018.15904,0.95392
3016.23051,0.95347
3014.30197,0.95299
3012.37344,0.95253
3010.44490,0.95208
3008.51636,0.95168
3006.58783,0.95152
3004.65929,0.95168
3002.73076,0.95199
3000.80222,0.95241
2998.87368,0.95294
2996.94515,0.95337
2995.01661,0.95363
2993.08808,0.95379
2991.15954,0.95361
2989.23100,0.95304
2987.30247,0.95248
2985.37393,0.95218
2983.44539,0.95221
2981.51686,0.95232
2979.58832,0.95201
2977.65979,0.95124
2975.73125,0.95043
2973.80271,0.94946
2971.87418,0.94811
2969.94564,0.94682
2968.01711,0.94601
2966.08857,0.94571
2964.16003,0.94569
2962.23150,0.94549
2960.30296,0.94500
2958.37442,0.94460
2956.44589,0.94468
2954.51735,0.94523
2952.58882,0.94562
2950.66028,0.94545
2948.73174,0.94521
2946.80321,0.94501
2944.87467,0.94427
2942.94614,0.94282
2941.01760,0.94119
2939.08906,0.94005
2937.16053,0.93962
2935.23199,0.93978
2933.30346,0.94039
2931.37492,0.94127
2929.44638,0.94185
2927.51785,0.94183
2925.58931,0.94154
2923.66077,0.94143
2921.73224,0.94172
2919.80370,0.94244
2917.87517,0.94334
2915.94663,0.94423
2914.01809,0.94503
2912.08956,0.94568
2910.16102,0.94615
2908.23249,0.94658
2906.30395,0.94715
2904.37541,0.94784
2902.44688,0.94849
2900.51834,0.94915
2898.58980,0.94998
2896.66127,0.95085
2894.73273,0.95147
2892.80420,0.95182
2890.87566,0.95205
2888.94712,0.95229
2887.01859,0.95255
2885.09005,0.95282
2883.16152,0.95303
2881.23298,0.95314
2879.30444,0.95320
2877.37591,0.95332
2875.44737,0.95355
2873.51883,0.95367
2871.59030,0.95345
2869.66176,0.95307
2867.73323,0.95270
2865.80469,0.95230
2863.87615,0.95191
2861.94762,0.95169
2860.01908,0.95159
2858.09055,0.95146
2856.16201,0.95135
2854.23347,0.95139
2852.30494,0.95158
2850.37640,0.95188
2848.44787,0.95213
2846.51933,0.95215
2844.59079,0.95203
2842.66226,0.95199
2840.73372,0.95214
2838.80518,0.95244
2836.87665,0.95281
2834.94811,0.95332
2833.01958,0.95404
2831.09104,0.95482
2829.16250,0.95545
2827.23397,0.95590
2825.30543,0.95628
2823.37690,0.95661
2821.44836,0.95689
2819.51982,0.95714
2817.59129,0.95731
2815.66275,0.95742
2813.73421,0.95757
2811.80568,0.95780
2809.87714,0.95799
2807.94861,0.95805
2806.02007,0.95802
2804.09153,0.95810
2802.16300,0.95832
2800.23446,0.95857
2798.30593,0.95871
2796.37739,0.95874
2794.44885,0.95874
2792.52032,0.95879
2790.59178,0.95888
2788.66325,0.95885
2786.73471,0.95865
2784.80617,0.95849
2782.87764,0.95852
2780.94910,0.95864
2779.02056,0.95874
2777.09203,0.95891
2775.16349,0.95915
2773.23496,0.95925
2771.30642,0.95921
2769.37788,0.95924
2767.44935,0.95936
2765.52081,0.95950
2763.59228,0.95961
2761.66374,0.95969
2759.73520,0.95973
2757.80667,0.95978
2755.87813,0.95981
2753.94959,0.95978
2752.02106,0.95975
2750.09252,0.95981
2748.16399,0.95982
2746.23545,0.95976
2744.30691,0.95971
2742.37838,0.95975
2740.44984,0.95987
2738.52131,0.96008
2736.59277,0.96029
2734.66423,0.96046
2732.73570,0.96062
2730.80716,0.96082
2728.87863,0.96104
2726.95009,0.96121
2725.02155,0.96125
2723.09302,0.96124
2721.16448,0.96131
2719.23594,0.96143
2717.30741,0.96151
2715.37887,0.96155
2713.45034,0.96158
2711.52180,0.96164
2709.59326,0.96176
2707.66473,0.96192
2705.73619,0.96198
2703.80766,0.96196
2701.87912,0.96195
2699.95058,0.96193
2698.02205,0.96186
2696.09351,0.96181
2694.16497,0.96183
2692.23644,0.96183
2690.30790,0.96180
2688.37937,0.96174
2686.45083,0.96168
2684.52229,0.96158
2682.59376,0.96145
2680.66522,0.96134
2678.73669,0.96122
2676.80815,0.96103
2674.87961,0.96079
2672.95108,0.96053
2671.02254,0.96026
2669.09401,0.96002
2667.16547,0.95976
2665.23693,0.95947
2663.30840,0.95929
2661.37986,0.95933
2659.45132,0.95949
2657.52279,0.95964
2655.59425,0.95981
2653.66572,0.95995
2651.73718,0.96000
2649.80864,0.96007
2647.88011,0.96018
2645.95157,0.96019
2644.02304,0.96006
2642.09450,0.95995
2640.16596,0.95997
2638.23743,0.96002
2636.30889,0.96000
2634.38035,0.95987
2632.45182,0.95962
2630.52328,0.95933
2628.59475,0.95913
2626.66621,0.95901
2624.73767,0.95889
2622.80914,0.95880
2620.88060,0.95873
2618.95207,0.95864
2617.02353,0.95858
2615.09499,0.95866
2613.16646,0.95889
2611.23792,0.95915
2609.30939,0.95936
2607.38085,0.95953
2605.45231,0.95964
2603.52378,0.95966
2601.59524,0.95967
2599.66670,0.95971
2597.73817,0.95968
2595.80963,0.95957
2593.88110,0.95948
2591.95256,0.95942
2590.02402,0.95945
2588.09549,0.95955
2586.16695,0.95969
2584.23842,0.95992
2582.30988,0.96025
2580.38134,0.96054
2578.45281,0.96079
2576.52427,0.96097
2574.59573,0.96099
2572.66720,0.96096
2570.73866,0.96109
2568.81013,0.96135
2566.88159,0.96164
2564.95305,0.96186
2563.02452,0.96193
2561.09598,0.96191
2559.16745,0.96195
2557.23891,0.96212
2555.31037,0.96228
2553.38184,0.96233
2551.45330,0.96223
2549.52476,0.96202
2547.59623,0.96179
2545.66769,0.96166
2543.73916,0.96167
2541.81062,0.96174
2539.88208,0.96177
2537.95355,0.96176
2536.02501,0.96177
2534.09648,0.96184
2532.16794,0.96195
2530.23940,0.96211
2528.31087,0.96230
2526.38233,0.96249
2524.45380,0.96275
2522.52526,0.96308
2520.59672,0.96325
2518.66819,0.96321
2516.73965,0.96311
2514.81111,0.96312
2512.88258,0.96322
2510.95404,0.96321
2509.02551,0.96310
2507.09697,0.96307
2505.16843,0.96310
2503.23990,0.96321
2501.31136,0.96337
2499.38283,0.96346
2497.45429,0.96358
2495.52575,0.96372
2493.59722,0.96379
2491.66868,0.96386
2489.74014,0.96408
2487.81161,0.96430
2485.88307,0.96441
2483.95454,0.96452
2482.02600,0.96465
2480.09746,0.96473
2478.16893,0.96475
2476.24039,0.96479
2474.31186,0.96490
2472.38332,0.96504
2470.45478,0.96512
2468.52625,0.96505
2466.59771,0.96487
2464.66918,0.96466
2462.74064,0.96449
2460.81210,0.96439
2458.88357,0.96430
2456.95503,0.96417
2455.02649,0.96404
2453.09796,0.96389
2451.16942,0.96367
2449.24089,0.96340
2447.31235,0.96314
2445.38381,0.96297
2443.45528,0.96295
2441.52674,0.96306
2439.59821,0.96326
2437.66967,0.96349
2435.74113,0.96376
2433.81260,0.96410
2431.88406,0.96452
2429.95552,0.96493
2428.02699,0.96528
2426.09845,0.96557
2424.16992,0.96571
2422.24138,0.96557
2420.31284,0.96536
2418.38431,0.96538
2416.45577,0.96551
2414.52724,0.96553
2412.59870,0.96549
2410.67016,0.96541
2408.74163,0.96530
2406.81309,0.96521
2404.88456,0.96517
2402.95602,0.96522
2401.02748,0.96534
2399.09895,0.96540
2397.17041,0.96540
2395.24187,0.96539
2393.31334,0.96531
2391.38480,0.96510
2389.45627,0.96476
2387.52773,0.96421
2385.59919,0.96318
2383.67066,0.96140
2381.74212,0.95893
2379.81359,0.95601
2377.88505,0.95262
2375.95651,0.94866
2374.02798,0.94428
2372.09944,0.93950
2370.17090,0.93443
2368.24237,0.92971
2366.31383,0.92585
2364.38530,0.92280
2362.45676,0.92084
2360.52822,0.92036
2358.59969,0.92162
2356.67115,0.92504
2354.74262,0.93020
2352.81408,0.93640
2350.88554,0.94195
2348.95701,0.94447
2347.02847,0.94319
2345.09994,0.93904
2343.17140,0.93528
2341.24286,0.93412
2339.31433,0.93455
2337.38579,0.93536
2335.45725,0.93624
2333.52872,0.93709
2331.60018,0.93779
2329.67165,0.93844
2327.74311,0.93928
2325.81457,0.94058
2323.88604,0.94247
2321.95750,0.94489
2320.02897,0.94752
2318.10043,0.94996
2316.17189,0.95198
2314.24336,0.95354
2312.31482,0.95473
2310.38628,0.95582
2308.45775,0.95707
2306.52921,0.95847
2304.60068,0.95981
2302.67214,0.96084
2300.74360,0.96160
2298.81507,0.96229
2296.88653,0.96288
2294.95800,0.96332
2293.02946,0.96373
2291.10092,0.96415
2289.17239,0.96453
2287.24385,0.96501
2285.31532,0.96555
2283.38678,0.96591
2281.45824,0.96605
2279.52971,0.96611
2277.60117,0.96616
2275.67263,0.96630
2273.74410,0.96660
2271.81556,0.96697
2269.88703,0.96715
2267.95849,0.96713
2266.02995,0.96724
2264.10142,0.96755
2262.17288,0.96787
2260.24435,0.96807
2258.31581,0.96830
2256.38727,0.96865
2254.45874,0.96891
2252.53020,0.96895
2250.60166,0.96911
2248.67313,0.96936
2246.74459,0.96916
2244.81606,0.96863
2242.88752,0.96835
2240.95898,0.96832
2239.03045,0.96832
2237.10191,0.96840
2235.17338,0.96846
2233.24484,0.96833
2231.31630,0.96822
2229.38777,0.96838
2227.45923,0.96868
2225.53070,0.96892
2223.60216,0.96921
2221.67362,0.96953
2219.74509,0.96961
2217.81655,0.96969
2215.88801,0.96993
2213.95948,0.97007
2212.03094,0.97015
2210.10241,0.97031
2208.17387,0.97037
2206.24533,0.97033
2204.31680,0.97031
2202.38826,0.97026
2200.45973,0.97030
2198.53119,0.97042
2196.60265,0.97054
2194.67412,0.97059
2192.74558,0.97047
2190.81704,0.97037
2188.88851,0.97048
2186.95997,0.97065
2185.03144,0.97083
2183.10290,0.97123
2181.17436,0.97150
2179.24583,0.97148
2177.31729,0.97165
2175.38876,0.97204
2173.46022,0.97215
2171.53168,0.97161
2169.60315,0.97093
2167.67461,0.97097
2165.74607,0.97145
2163.81754,0.97170
2161.88900,0.97238
2159.96047,0.97448
2158.03193,0.97651
2156.10339,0.97676
2154.17486,0.97594
2152.24632,0.97518
2150.31779,0.97503
2148.38925,0.97532
2146.46071,0.97536
2144.53218,0.97485
2142.60364,0.97438
2140.67511,0.97425
2138.74657,0.97424
2136.81803,0.97446
2134.88950,0.97492
2132.96096,0.97504
2131.03242,0.97462
2129.10389,0.97396
2127.17535,0.97331
2125.24682,0.97281
2123.31828,0.97254
2121.38974,0.97238
2119.46121,0.97219
2117.53267,0.97203
2115.60414,0.97198
2113.67560,0.97201
2111.74706,0.97209
2109.81853,0.97230
2107.88999,0.97251
2105.96145,0.97252
2104.03292,0.97238
2102.10438,0.97236
2100.17585,0.97263
2098.24731,0.97298
2096.31877,0.97305
2094.39024,0.97289
2092.46170,0.97271
2090.53317,0.97262
2088.60463,0.97261
2086.67609,0.97261
2084.74756,0.97256
2082.81902,0.97236
2080.89049,0.97210
2078.96195,0.97196
2077.03341,0.97200
2075.10488,0.97206
2073.17634,0.97206
2071.24780,0.97221
2069.31927,0.97262
2067.39073,0.97294
2065.46220,0.97282
2063.53366,0.97257
2061.60512,0.97258
2059.67659,0.97260
2057.74805,0.97263
2055.81952,0.97299
2053.89098,0.97316
2051.96244,0.97291
2050.03391,0.97311
2048.10537,0.97384
2046.17683,0.97426
2044.24830,0.97430
2042.31976,0.97429
2040.39123,0.97454
2038.46269,0.97504
2036.53415,0.97559
2034.60562,0.97625
2032.67708,0.97669
2030.74855,0.97679
2028.82001,0.97712
2026.89147,0.97765
2024.96294,0.97792
2023.03440,0.97801
2021.10587,0.97791
2019.17733,0.97756
2017.24879,0.97732
2015.32026,0.97737
2013.39172,0.97746
2011.46318,0.97725
2009.53465,0.97690
2007.60611,0.97682
2005.67758,0.97666
2003.74904,0.97615
2001.82050,0.97575
1999.89197,0.97553
1997.96343,0.97520
1996.03490,0.97484
1994.10636,0.97469
1992.17782,0.97496
1990.24929,0.97539
1988.32075,0.97550
1986.39221,0.97530
1984.46368,0.97495
1982.53514,0.97471
1980.60661,0.97509
1978.67807,0.97639
1976.74953,0.97776
1974.82100,0.97848
1972.89246,0.97909
1970.96393,0.97981
1969.03539,0.98009
1967.10685,0.97955
1965.17832,0.97888
1963.24978,0.97888
1961.32125,0.97954
1959.39271,0.98039
1957.46417,0.98078
1955.53564,0.98058
1953.60710,0.98004
1951.67856,0.97957
1949.75003,0.97944
1947.82149,0.97944
1945.89296,0.97916
1943.96442,0.97859
1942.03588,0.97826
1940.10735,0.97828
1938.17881,0.97827
1936.25028,0.97814
1934.32174,0.97800
1932.39320,0.97790
1930.46467,0.97778
1928.53613,0.97753
1926.60759,0.97716
1924.67906,0.97670
1922.75052,0.97623
1920.82199,0.97598
1918.89345,0.97598
1916.96491,0.97612
1915.03638,0.97630
1913.10784,0.97638
1911.17931,0.97648
1909.25077,0.97666
1907.32223,0.97671
1905.39370,0.97655
1903.46516,0.97642
1901.53663,0.97654
1899.60809,0.97667
1897.67955,0.97658
1895.75102,0.97636
1893.82248,0.97610
1891.89394,0.97580
1889.96541,0.97558
1888.03687,0.97571
1886.10834,0.97597
1884.17980,0.97608
1882.25126,0.97603
1880.32273,0.97596
1878.39419,0.97602
1876.46566,0.97612
1874.53712,0.97610
1872.60858,0.97592
1870.68005,0.97568
1868.75151,0.97551
1866.82297,0.97565
1864.89444,0.97600
1862.96590,0.97631
1861.03737,0.97644
1859.10883,0.97649
1857.18029,0.97666
1855.25176,0.97687
1853.32322,0.97704
1851.39469,0.97713
1849.46615,0.97701
1847.53761,0.97672
1845.60908,0.97639
1843.68054,0.97644
1841.75200,0.97699
1839.82347,0.97738
1837.89493,0.97744
1835.96640,0.97738
1834.03786,0.97723
1832.10932,0.97678
1830.18079,0.97619
1828.25225,0.97600
1826.32372,0.97616
1824.39518,0.97644
1822.46664,0.97679
1820.53811,0.97706
1818.60957,0.97722
1816.68104,0.97723
1814.75250,0.97700
1812.82396,0.97660
1810.89543,0.97628
1808.96689,0.97625
1807.03835,0.97637
1805.10982,0.97637
1803.18128,0.97618
1801.25275,0.97607
1799.32421,0.97636
1797.39567,0.97674
1795.46714,0.97669
1793.53860,0.97620
1791.61007,0.97613
1789.68153,0.97687
1787.75299,0.97750
1785.82446,0.97775
1783.89592,0.97781
1781.96738,0.97778
1780.03885,0.97778
1778.11031,0.97779
1776.18178,0.97753
1774.25324,0.97684
1772.32470,0.97609
1770.39617,0.97608
1768.46763,0.97659
1766.53910,0.97705
1764.61056,0.97716
1762.68202,0.97691
1760.75349,0.97669
1758.82495,0.97657
1756.89642,0.97644
1754.96788,0.97635
1753.03934,0.97595
1751.11081,0.97506
1749.18227,0.97443
1747.25373,0.97453
1745.32520,0.97456
1743.39666,0.97407
1741.46813,0.97324
1739.53959,0.97243
1737.61105,0.97184
1735.68252,0.97120
1733.75398,0.97092
1731.82545,0.97181
1729.89691,0.97307
1727.96837,0.97420
1726.03984,0.97498
1724.11130,0.97543
1722.18276,0.97552
1720.25423,0.97500
1718.32569,0.97368
1716.39716,0.97278
1714.46862,0.97343
1712.54008,0.97411
1710.61155,0.97417
1708.68301,0.97364
1706.75448,0.97275
1704.82594,0.97207
1702.89740,0.97187
1700.96887,0.97152
1699.04033,0.97081
1697.11180,0.97060
1695.18326,0.97117
1693.25472,0.97179
1691.32619,0.97185
1689.39765,0.97149
1687.46911,0.97088
1685.54058,0.96987
1683.61204,0.96924
1681.68351,0.96989
1679.75497,0.97062
1677.82643,0.97100
1675.89790,0.97130
1673.96936,0.97174
1672.04083,0.97203
1670.11229,0.97232
1668.18375,0.97300
1666.25522,0.97338
1664.32668,0.97291
1662.39814,0.97182
1660.46961,0.97053
1658.54107,0.96866
1656.61254,0.96564
1654.68400,0.95691
1652.75546,0.92970
1650.82693,0.90640
1648.89839,0.88921
1646.96986,0.86254
1645.04132,0.84590
1643.11278,0.85125
1641.18425,0.86668
1639.25571,0.88467
1637.32718,0.90126
1635.39864,0.91677
1633.47010,0.92639
1631.54157,0.93173
1629.61303,0.93702
1627.68449,0.94311
1625.75596,0.94830
1623.82742,0.95198
1621.89889,0.95463
1619.97035,0.95578
1618.04181,0.95597
1616.11328,0.95649
1614.18474,0.95772
1612.25621,0.95886
1610.32767,0.95972
1608.39913,0.96048
1606.47060,0.96092
1604.54206,0.96084
1602.61352,0.96022
1600.68499,0.95928
1598.75645,0.95816
1596.82792,0.95662
1594.89938,0.95461
1592.97084,0.95216
1591.04231,0.94912
1589.11377,0.94501
1587.18524,0.93971
1585.25670,0.93376
1583.32816,0.92854
1581.39963,0.92626
1579.47109,0.92748
1577.54256,0.93264
1575.61402,0.94228
1573.68548,0.94964
1571.75695,0.95301
1569.82841,0.95483
1567.89987,0.95539
1565.97134,0.95365
1564.04280,0.94988
1562.11427,0.94549
1560.18573,0.93999
1558.25719,0.93386
1556.32866,0.93520
1554.40012,0.94004
1552.47159,0.94426
1550.54305,0.94672
1548.61451,0.94751
1546.68598,0.94684
1544.75744,0.94460
1542.82890,0.94035
1540.90037,0.93304
1538.97183,0.92337
1537.04330,0.91735
1535.11476,0.90821
1533.18622,0.88809
1531.25769,0.86284
1529.32915,0.83630
1527.40062,0.79791
1525.47208,0.75135
1523.54354,0.71445
1521.61501,0.69038
1519.68647,0.68656
1517.75793,0.70974
1515.82940,0.75477
1513.90086,0.79685
1511.97233,0.82538
1510.04379,0.84108
1508.11525,0.83679
1506.18672,0.80955
1504.25818,0.79605
1502.32965,0.79364
1500.40111,0.79333
1498.47257,0.79076
1496.54404,0.77611
1494.61550,0.75220
1492.68697,0.72772
1490.75843,0.69424
1488.82989,0.64831
1486.90136,0.61325
1484.97282,0.59536
1483.04428,0.58602
1481.11575,0.57543
1479.18721,0.55663
1477.25868,0.53235
1475.33014,0.51360
1473.40160,0.51969
1471.47307,0.55379
1469.54453,0.58731
1467.61600,0.61727
1465.68746,0.65498
1463.75892,0.69671
1461.83039,0.72506
1459.90185,0.74162
1457.97331,0.75271
1456.04478,0.75461
1454.11624,0.74871
1452.18771,0.74046
1450.25917,0.73590
1448.33063,0.74512
1446.40210,0.76871
1444.47356,0.79233
1442.54503,0.80691
1440.61649,0.81162
1438.68795,0.80949
1436.75942,0.80476
1434.83088,0.80258
1432.90235,0.80486
1430.97381,0.81176
1429.04527,0.82192
1427.11674,0.82912
1425.18820,0.83004
1423.25966,0.82659
1421.33113,0.82292
1419.40259,0.82222
1417.47406,0.82742
1415.54552,0.83514
1413.61698,0.84150
1411.68845,0.84663
1409.75991,0.85234
1407.83138,0.85926
1405.90284,0.86638
1403.97430,0.87040
1402.04577,0.86724
1400.11723,0.85553
1398.18869,0.83696
1396.26016,0.81498
1394.33162,0.79205
1392.40309,0.77953
1390.47455,0.78263
1388.54601,0.79897
1386.61748,0.82398
1384.68894,0.84456
1382.76041,0.85668
1380.83187,0.86453
1378.90333,0.86949
1376.97480,0.87171
1375.04626,0.87335
1373.11773,0.87809
1371.18919,0.88641
1369.26065,0.89672
1367.33212,0.90674
1365.40358,0.91419
1363.47504,0.91984
1361.54651,0.92464
1359.61797,0.92823
1357.68944,0.93081
1355.76090,0.93292
1353.83236,0.93443
1351.90383,0.93529
1349.97529,0.93603
1348.04676,0.93712
1346.11822,0.93882
1344.18968,0.94080
1342.26115,0.94250
1340.33261,0.94338
1338.40407,0.94322
1336.47554,0.94167
1334.54700,0.93795
1332.61847,0.93121
1330.68993,0.92094
1328.76139,0.90738
1326.83286,0.89057
1324.90432,0.87058
1322.97579,0.85042
1321.04725,0.83460
1319.11871,0.82452
1317.19018,0.81964
1315.26164,0.82086
1313.33311,0.82989
1311.40457,0.84430
1309.47603,0.85604
1307.54750,0.85879
1305.61896,0.85160
1303.69042,0.83674
1301.76189,0.81853
1299.83335,0.80199
1297.90482,0.79103
1295.97628,0.78812
1294.04774,0.79370
1292.11921,0.80609
1290.19067,0.82150
1288.26214,0.83363
1286.33360,0.83831
1284.40506,0.83887
1282.47653,0.84182
1280.54799,0.84907
1278.61945,0.85644
1276.69092,0.85919
1274.76238,0.85759
1272.83385,0.85610
1270.90531,0.85936
1268.97677,0.86850
1267.04824,0.88071
1265.11970,0.89217
1263.19117,0.90033
1261.26263,0.90449
1259.33409,0.90490
1257.40556,0.90287
1255.47702,0.90065
1253.54849,0.89987
1251.61995,0.90025
1249.69141,0.90097
1247.76288,0.90250
1245.83434,0.90558
1243.90580,0.90927
1241.97727,0.91079
1240.04873,0.90714
1238.12020,0.89632
1236.19166,0.87787
1234.26312,0.85361
1232.33459,0.82904
1230.40605,0.81271
1228.47752,0.81119
1226.54898,0.82452
1224.62044,0.84735
1222.69191,0.87248
1220.76337,0.89442
1218.83483,0.91117
1216.90630,0.92320
1214.97776,0.93167
1213.04923,0.93766
1211.12069,0.94206
1209.19215,0.94548
1207.26362,0.94822
1205.33508,0.95036
1203.40655,0.95193
1201.47801,0.95300
1199.54947,0.95349
1197.62094,0.95325
1195.69240,0.95211
1193.76387,0.95021
1191.83533,0.94836
1189.90679,0.94759
1187.97826,0.94826
1186.04972,0.94963
1184.12118,0.95024
1182.19265,0.94871
1180.26411,0.94435
1178.33558,0.93754
1176.40704,0.92948
1174.47850,0.92140
1172.54997,0.91431
1170.62143,0.90911
1168.69290,0.90665
1166.76436,0.90729
1164.83582,0.91034
1162.90729,0.91400
1160.97875,0.91573
1159.05021,0.91283
1157.12168,0.90271
1155.19314,0.88353
1153.26461,0.85586
1151.33607,0.82346
1149.40753,0.79040
1147.47900,0.75958
1145.55046,0.73510
1143.62193,0.72150
1141.69339,0.72210
1139.76485,0.73809
1137.83632,0.76356
1135.90778,0.78782
1133.97924,0.80652
1132.05071,0.82204
1130.12217,0.83631
1128.19364,0.84947
1126.26510,0.86090
1124.33656,0.86904
1122.40803,0.87174
1120.47949,0.86781
1118.55096,0.85864
1116.62242,0.84733
1114.69388,0.83585
1112.76535,0.82335
1110.83681,0.80651
1108.90828,0.78178
1106.97974,0.74801
1105.05120,0.70853
1103.12267,0.67099
1101.19413,0.64083
1099.26559,0.61581
1097.33706,0.59289
1095.40852,0.57574
1093.47999,0.57124
1091.55145,0.58251
1089.62291,0.60838
1087.69438,0.64744
1085.76584,0.69504
1083.83731,0.73938
1081.90877,0.76825
1079.98023,0.77645
1078.05170,0.76833
1076.12316,0.75756
1074.19462,0.75914
1072.26609,0.77798
1070.33755,0.80671
1068.40902,0.83466
1066.48048,0.85602
1064.55194,0.87051
1062.62341,0.88001
1060.69487,0.88614
1058.76634,0.88958
1056.83780,0.89042
1054.90926,0.88845
1052.98073,0.88385
1051.05219,0.87802
1049.12366,0.87358
1047.19512,0.87281
1045.26658,0.87568
1043.33805,0.88017
1041.40951,0.88465
1039.48097,0.88904
1037.55244,0.89315
1035.62390,0.89593
1033.69537,0.89629
1031.76683,0.89290
1029.83829,0.88355
1027.90976,0.86659
1025.98122,0.84292
1024.05269,0.81584
1022.12415,0.79065
1020.19561,0.77472
1018.26708,0.77303
1016.33854,0.78016
1014.41000,0.78086
1012.48147,0.76517
1010.55293,0.74256
1008.62440,0.73310
1006.69586,0.74566
1004.76732,0.77331
1002.83879,0.80496
1000.91025,0.83300
998.98172,0.85312
997.05318,0.86217
995.12464,0.85666
993.19611,0.83319
991.26757,0.79385
989.33904,0.74951
987.41050,0.71088
985.48196,0.67885
983.55343,0.64698
981.62489,0.60928
979.69635,0.56956
977.76782,0.54386
975.83928,0.54573
973.91075,0.57353
971.98221,0.61644
970.05367,0.66446
968.12514,0.71050
966.19660,0.75008
964.26807,0.78159
962.33953,0.80569
960.41099,0.82421
958.48246,0.83896
956.55392,0.85113
954.62538,0.86124
952.69685,0.86954
950.76831,0.87628
948.83978,0.88158
946.91124,0.88539
944.98270,0.88743
943.05417,0.88751
941.12563,0.88635
939.19710,0.88561
937.26856,0.88653
935.34002,0.88904
933.41149,0.89174
931.48295,0.89234
929.55442,0.88894
927.62588,0.88155
925.69734,0.87259
923.76881,0.86572
921.84027,0.86357
919.91173,0.86533
917.98320,0.86714
916.05466,0.86581
914.12613,0.86099
912.19759,0.85339
910.26905,0.84355
908.34052,0.83275
906.41198,0.82372
904.48345,0.81959
902.55491,0.82238
900.62637,0.83154
898.69784,0.84288
896.76930,0.84894
894.84076,0.84260
892.91223,0.82514
890.98369,0.80911
889.05516,0.80632
887.12662,0.81721
885.19808,0.83542
883.26955,0.85471
881.34101,0.87087
879.41248,0.88258
877.48394,0.89017
875.55540,0.89397
873.62687,0.89493
871.69833,0.89566
869.76980,0.89890
867.84126,0.90385
865.91272,0.90663
863.98419,0.90434
862.05565,0.89541
860.12711,0.87879
858.19858,0.85907
856.27004,0.84751
854.34151,0.84963
852.41297,0.85893
850.48443,0.86711
848.55590,0.87190
846.62736,0.87560
844.69883,0.88101
842.77029,0.88794
840.84175,0.89408
838.91322,0.89865
836.98468,0.90218
835.05614,0.90441
833.12761,0.90480
831.19907,0.90394
829.27054,0.90303
827.34200,0.90207
825.41346,0.89968
823.48493,0.89401
821.55639,0.88270
819.62786,0.86325
817.69932,0.83937
815.77078,0.82469
813.84225,0.82917
811.91371,0.84646
809.98517,0.86451
808.05664,0.87872
806.12810,0.88963
804.19957,0.89789
802.27103,0.90420
800.34249,0.90962
798.41396,0.91493
796.48542,0.91998
794.55689,0.92400
792.62835,0.92592
790.69981,0.92544
788.77128,0.92346
786.84274,0.91933
784.91421,0.90877
782.98567,0.88850
781.05713,0.86559
779.12860,0.85458
777.20006,0.85971
775.27152,0.86951
773.34299,0.87258
771.41445,0.86658
769.48592,0.85209
767.55738,0.83487
765.62884,0.82780
763.70031,0.83196
761.77177,0.83235
759.84324,0.82627
757.91470,0.83017
755.98616,0.84998
754.05763,0.87344
752.12909,0.89167
750.20055,0.90525
748.27202,0.91620
746.34348,0.92531
744.41495,0.93226
742.48641,0.93691
740.55787,0.93988
738.62934,0.94152
736.70080,0.94128
734.77227,0.93827
732.84373,0.93156
730.91519,0.91789
728.98666,0.89426
727.05812,0.86829
725.12959,0.85547
723.20105,0.85941
721.27251,0.86929
719.34398,0.87661
717.41544,0.88025
715.48690,0.88237
713.55837,0.88688
711.62983,0.89405
709.70130,0.89943
707.77276,0.90207
705.84422,0.90509
703.91569,0.90953
701.98715,0.91378
700.05862,0.91709
698.13008,0.92053
696.20154,0.92435
694.27301,0.92674
692.34447,0.92602
690.41593,0.92200
688.48740,0.91595
686.55886,0.90957
684.63033,0.90296
682.70179,0.89459
680.77325,0.88367
678.84472,0.87258
676.91618,0.86728
674.98765,0.87266
673.05911,0.88543
671.13057,0.89732
669.20204,0.90683
667.27350,0.91541
665.34497,0.91820
663.41643,0.91647
661.48789,0.91203
659.55936,0.90268
657.63082,0.88550
655.70228,0.85930
653.77375,0.82694
651.84521,0.80450
649.91668,0.81024
647.98814,0.84063
646.05960,0.87537
644.13107,0.89819
642.20253,0.90206
640.27400,0.88769
638.34546,0.86178
636.41692,0.83741
634.48839,0.83102
632.55985,0.84385
630.63131,0.86125
628.70278,0.87465
626.77424,0.88332
624.84571,0.88906
622.91717,0.89770
620.98863,0.91115
619.06010,0.92457
617.13156,0.93425
615.20303,0.94019
613.27449,0.94337
611.34595,0.94430
609.41742,0.94353
607.48888,0.94171
605.56035,0.93925
603.63181,0.93566
601.70327,0.93023
599.77474,0.92345
597.84620,0.91626
595.91766,0.90890
593.98913,0.89933
592.06059,0.88392
590.13206,0.86550
588.20352,0.84845
586.27498,0.81941
584.34645,0.76650
582.41791,0.71841
580.48938,0.71540
578.56084,0.75174
576.63230,0.79611
574.70377,0.83418
572.77523,0.86373
570.84669,0.88547
568.91816,0.90151
566.98962,0.91373
565.06109,0.92322
563.13255,0.93052
561.20401,0.93606
559.27548,0.94012
557.34694,0.94316
555.41841,0.94531
553.48987,0.94649
551.56133,0.94665
549.63280,0.94578
547.70426,0.94359
545.77573,0.93849
543.84719,0.92823
541.91865,0.91213
539.99012,0.89212
538.06158,0.86623
536.13304,0.82307
534.20451,0.76142
532.27597,0.71038
530.34744,0.70294
528.41890,0.73824
526.49036,0.78896
524.56183,0.82474
522.63329,0.83459
520.70476,0.83128
518.77622,0.82929
516.84768,0.83247
514.91915,0.83441
512.99061,0.82909
511.06207,0.81769
509.13354,0.81004
507.20500,0.81275
505.27647,0.81768
503.34793,0.81810
501.41939,0.81979
499.49086,0.82728
497.56232,0.83971
495.63379,0.85809
493.70525,0.88179
491.77671,0.90387
489.84818,0.91725
487.91964,0.92321
485.99110,0.92534
484.06257,0.92375
482.13403,0.91671
480.20550,0.90183
478.27696,0.87581
476.34842,0.84253
474.41989,0.81918
472.49135,0.82352
470.56282,0.84879
468.63428,0.87214
466.70574,0.88723
464.77721,0.89517
462.84867,0.89707
460.92014,0.89401
458.99160,0.88603
457.06306,0.87625
455.13453,0.87577
453.20599,0.88836
451.27745,0.90360
449.34892,0.90722
447.42038,0.89839
445.49185,0.88920
443.56331,0.89198
441.63477,0.90664
439.70624,0.92074
437.77770,0.92706
435.84917,0.92686
433.92063,0.92070
431.99209,0.90653
430.06356,0.88141
428.13502,0.84775
426.20648,0.81601
424.27795,0.79695
422.34941,0.79114
420.42088,0.79119
418.49234,0.80044
416.56380,0.82024
414.63527,0.83983
412.70673,0.85701
410.77820,0.87027
408.84966,0.87900
406.92112,0.88336
404.99259,0.88319
403.06405,0.87912
401.13552,0.87167
399.20698,0.86479
