3997.85540,0.89922
3995.92686,0.89973
3993.99833,0.90013
3992.06979,0.90035
3990.14125,0.90029
3988.21272,0.89974
3986.28418,0.89930
3984.35565,0.89947
3982.42711,0.89980
3980.49857,0.89988
3978.57004,0.90010
3976.64150,0.90099
3974.71297,0.90199
3972.78443,0.90214
3970.85589,0.90158
3968.92736,0.90086
3966.99882,0.90033
3965.07029,0.90057
3963.14175,0.90164
3961.21321,0.90242
3959.28468,0.90233
3957.35614,0.90205
3955.42760,0.90206
3953.49907,0.90285
3951.57053,0.90480
3949.64200,0.90672
3947.71346,0.90648
3945.78492,0.90542
3943.85639,0.90557
3941.92785,0.90505
3939.99932,0.90318
3938.07078,0.90206
3936.14224,0.90269
3934.21371,0.90533
3932.28517,0.90862
3930.35663,0.90905
3928.42810,0.90725
3926.49956,0.90737
3924.57103,0.90900
3922.64249,0.90863
3920.71395,0.90781
3918.78542,0.90858
3916.85688,0.90809
3914.92835,0.90490
3912.99981,0.90211
3911.07127,0.90126
3909.14274,0.90268
3907.21420,0.90780
3905.28566,0.91681
3903.35713,0.92361
3901.42859,0.92301
3899.50006,0.91815
3897.57152,0.91197
3895.64298,0.90908
3893.71445,0.91154
3891.78591,0.91461
3889.85738,0.91234
3887.92884,0.91081
3886.00030,0.91362
3884.07177,0.91639
3882.14323,0.91672
3880.21470,0.91443
3878.28616,0.91041
3876.35762,0.91019
3874.42909,0.91483
3872.50055,0.92090
3870.57201,0.92427
3868.64348,0.92221
3866.71494,0.92080
3864.78641,0.92320
3862.85787,0.92151
3860.92933,0.91542
3859.00080,0.91369
3857.07226,0.91861
3855.14373,0.92970
3853.21519,0.93843
3851.28665,0.92833
3849.35812,0.91661
3847.42958,0.91124
3845.50104,0.91224
3843.57251,0.91804
3841.64397,0.92623
3839.71544,0.93461
3837.78690,0.93623
3835.85836,0.92939
3833.92983,0.92283
3832.00129,0.91829
3830.07276,0.91561
3828.14422,0.91586
3826.21568,0.91797
3824.28715,0.92123
3822.35861,0.92805
3820.43008,0.93341
3818.50154,0.93066
3816.57300,0.92535
3814.64447,0.91695
3812.71593,0.90991
3810.78739,0.90837
3808.85886,0.91243
3806.93032,0.91872
3805.00179,0.92247
3803.07325,0.92716
3801.14471,0.93054
3799.21618,0.92630
3797.28764,0.92040
3795.35911,0.91348
3793.43057,0.90732
3791.50203,0.90455
3789.57350,0.90459
3787.64496,0.90685
3785.71642,0.91008
3783.78789,0.91105
3781.85935,0.91112
3779.93082,0.91238
3778.00228,0.91072
3776.07374,0.90678
3774.14521,0.90590
3772.21667,0.90961
3770.28814,0.91517
3768.35960,0.91698
3766.43106,0.91560
3764.50253,0.91367
3762.57399,0.91332
3760.64546,0.91697
3758.71692,0.92160
3756.78838,0.92259
3754.85985,0.92492
3752.93131,0.93479
3751.00277,0.94921
3749.07424,0.94908
3747.14570,0.94238
3745.21717,0.93728
3743.28863,0.93114
3741.36009,0.92732
3739.43156,0.92808
3737.50302,0.93407
3735.57449,0.94175
3733.64595,0.93863
3731.71741,0.92711
3729.78888,0.91897
3727.86034,0.91730
3725.93180,0.91989
3724.00327,0.92151
3722.07473,0.91976
3720.14620,0.91615
3718.21766,0.91294
3716.28912,0.91254
3714.36059,0.91718
3712.43205,0.92726
3710.50352,0.93065
3708.57498,0.92103
3706.64644,0.91312
3704.71791,0.91104
3702.78937,0.91242
3700.86084,0.91184
3698.93230,0.90901
3697.00376,0.90829
3695.07523,0.91058
3693.14669,0.91653
3691.21815,0.92717
3689.28962,0.93269
3687.36108,0.92317
3685.43255,0.91392
3683.50401,0.91036
3681.57547,0.91194
3679.64694,0.91829
3677.71840,0.92801
3675.78987,0.93530
3673.86133,0.93233
3671.93279,0.93054
3670.00426,0.92958
3668.07572,0.91996
3666.14718,0.91067
3664.21865,0.90667
3662.29011,0.90618
3660.36158,0.90774
3658.43304,0.91129
3656.50450,0.91518
3654.57597,0.91678
3652.64743,0.92089
3650.71890,0.93429
3648.79036,0.94518
3646.86182,0.93113
3644.93329,0.91807
3643.00475,0.91250
3641.07622,0.91054
3639.14768,0.90972
3637.21914,0.90955
3635.29061,0.91070
3633.36207,0.91387
3631.43353,0.91978
3629.50500,0.92713
3627.57646,0.92442
3625.64793,0.91587
3623.71939,0.91275
3621.79085,0.91622
3619.86232,0.92328
3617.93378,0.92579
3616.00525,0.92487
3614.07671,0.92501
3612.14817,0.92360
3610.21964,0.92152
3608.29110,0.91930
3606.36256,0.91455
3604.43403,0.91119
3602.50549,0.91253
3600.57696,0.91602
3598.64842,0.91736
3596.71988,0.91702
3594.79135,0.91583
3592.86281,0.91326
3590.93428,0.91286
3589.00574,0.91746
3587.07720,0.92097
3585.14867,0.91626
3583.22013,0.91114
3581.29160,0.90924
3579.36306,0.90921
3577.43452,0.90950
3575.50599,0.90923
3573.57745,0.90853
3571.64891,0.90922
3569.72038,0.91380
3567.79184,0.92196
3565.86331,0.92419
3563.93477,0.91831
3562.00623,0.91292
3560.07770,0.90952
3558.14916,0.90732
3556.22063,0.90685
3554.29209,0.90854
3552.36355,0.91021
3550.43502,0.91008
3548.50648,0.91089
3546.57794,0.91346
3544.64941,0.91339
3542.72087,0.90955
3540.79234,0.90607
3538.86380,0.90522
3536.93526,0.90580
3535.00673,0.90564
3533.07819,0.90562
3531.14966,0.90768
3529.22112,0.91093
3527.29258,0.91240
3525.36405,0.91192
3523.43551,0.91068
3521.50697,0.90843
3519.57844,0.90620
3517.64990,0.90485
3515.72137,0.90412
3513.79283,0.90449
3511.86429,0.90614
3509.93576,0.90742
3508.00722,0.90722
3506.07869,0.90767
3504.15015,0.90961
3502.22161,0.90966
3500.29308,0.90726
3498.36454,0.90589
3496.43601,0.90584
3494.50747,0.90526
3492.57893,0.90433
3490.65040,0.90445
3488.72186,0.90545
3486.79332,0.90592
3484.86479,0.90614
3482.93625,0.90703
3481.00772,0.90716
3479.07918,0.90576
3477.15064,0.90488
3475.22211,0.90503
3473.29357,0.90496
3471.36504,0.90462
3469.43650,0.90474
3467.50796,0.90519
3465.57943,0.90561
3463.65089,0.90604
3461.72235,0.90609
3459.79382,0.90538
3457.86528,0.90464
3455.93675,0.90442
3454.00821,0.90440
3452.07967,0.90452
3450.15114,0.90555
3448.22260,0.90752
3446.29407,0.90829
3444.36553,0.90736
3442.43699,0.90649
3440.50846,0.90590
3438.57992,0.90530
3436.65139,0.90495
3434.72285,0.90496
3432.79431,0.90522
3430.86578,0.90540
3428.93724,0.90536
3427.00870,0.90524
3425.08017,0.90548
3423.15163,0.90652
3421.22310,0.90753
3419.29456,0.90708
3417.36602,0.90583
3415.43749,0.90518
3413.50895,0.90507
3411.58042,0.90499
3409.65188,0.90498
3407.72334,0.90512
3405.79481,0.90534
3403.86627,0.90552
3401.93773,0.90556
3400.00920,0.90577
3398.08066,0.90628
3396.15213,0.90666
3394.22359,0.90686
3392.29505,0.90678
3390.36652,0.90622
3388.43798,0.90591
3386.50945,0.90621
3384.58091,0.90636
3382.65237,0.90605
3380.72384,0.90577
3378.79530,0.90573
3376.86677,0.90573
3374.93823,0.90567
3373.00969,0.90562
3371.08116,0.90573
3369.15262,0.90615
3367.22408,0.90675
3365.29555,0.90708
3363.36701,0.90696
3361.43848,0.90669
3359.50994,0.90651
3357.58140,0.90650
3355.65287,0.90650
3353.72433,0.90626
3351.79580,0.90600
3349.86726,0.90594
3347.93872,0.90600
3346.01019,0.90607
3344.08165,0.90610
3342.15311,0.90608
3340.22458,0.90615
3338.29604,0.90655
3336.36751,0.90696
3334.43897,0.90686
3332.51043,0.90655
3330.58190,0.90650
3328.65336,0.90666
3326.72483,0.90680
3324.79629,0.90682
3322.86775,0.90668
3320.93922,0.90647
3319.01068,0.90641
3317.08215,0.90654
3315.15361,0.90684
3313.22507,0.90717
3311.29654,0.90742
3309.36800,0.90746
3307.43946,0.90714
3305.51093,0.90669
3303.58239,0.90647
3301.65386,0.90647
3299.72532,0.90664
3297.79678,0.90689
3295.86825,0.90706
3293.93971,0.90726
3292.01118,0.90742
3290.08264,0.90735
3288.15410,0.90716
3286.22557,0.90701
3284.29703,0.90695
3282.36849,0.90695
3280.43996,0.90705
3278.51142,0.90741
3276.58289,0.90796
3274.65435,0.90827
3272.72581,0.90796
3270.79728,0.90731
3268.86874,0.90691
3266.94021,0.90689
3265.01167,0.90701
3263.08313,0.90707
3261.15460,0.90713
3259.22606,0.90721
3257.29753,0.90737
3255.36899,0.90760
3253.44045,0.90759
3251.51192,0.90725
3249.58338,0.90709
3247.65484,0.90749
3245.72631,0.90810
3243.79777,0.90811
3241.86924,0.90765
3239.94070,0.90741
3238.01216,0.90742
3236.08363,0.90750
3234.15509,0.90764
3232.22656,0.90785
3230.29802,0.90800
3228.36948,0.90791
3226.44095,0.90759
3224.51241,0.90739
3222.58387,0.90763
3220.65534,0.90808
3218.72680,0.90822
3216.79827,0.90819
3214.86973,0.90827
3212.94119,0.90819
3211.01266,0.90800
3209.08412,0.90779
3207.15559,0.90748
3205.22705,0.90731
3203.29851,0.90739
3201.36998,0.90761
3199.44144,0.90794
3197.51290,0.90808
3195.58437,0.90776
3193.65583,0.90738
3191.72730,0.90727
3189.79876,0.90735
3187.87022,0.90757
3185.94169,0.90778
3184.01315,0.90765
3182.08462,0.90735
3180.15608,0.90749
3178.22754,0.90775
3176.29901,0.90742
3174.37047,0.90679
3172.44194,0.90649
3170.51340,0.90644
3168.58486,0.90634
3166.65633,0.90607
3164.72779,0.90579
3162.79925,0.90570
3160.87072,0.90582
3158.94218,0.90599
3157.01365,0.90615
3155.08511,0.90637
3153.15657,0.90664
3151.22804,0.90669
3149.29950,0.90638
3147.37097,0.90597
3145.44243,0.90574
3143.51389,0.90577
3141.58536,0.90598
3139.65682,0.90625
3137.72828,0.90658
3135.79975,0.90715
3133.87121,0.90781
3131.94268,0.90798
3130.01414,0.90773
3128.08560,0.90773
3126.15707,0.90801
3124.22853,0.90829
3122.30000,0.90839
3120.37146,0.90831
3118.44292,0.90830
3116.51439,0.90826
3114.58585,0.90785
3112.65732,0.90729
3110.72878,0.90697
3108.80024,0.90685
3106.87171,0.90671
3104.94317,0.90670
3103.01463,0.90695
3101.08610,0.90700
3099.15756,0.90652
3097.22903,0.90598
3095.30049,0.90536
3093.37195,0.90439
3091.44342,0.90349
3089.51488,0.90293
3087.58635,0.90246
3085.65781,0.90197
3083.72927,0.90162
3081.80074,0.90134
3079.87220,0.90069
3077.94366,0.89946
3076.01513,0.89814
3074.08659,0.89726
3072.15806,0.89674
3070.22952,0.89633
3068.30098,0.89587
3066.37245,0.89496
3064.44391,0.89312
3062.51538,0.89066
3060.58684,0.88843
3058.65830,0.88691
3056.72977,0.88589
3054.80123,0.88510
3052.87270,0.88488
3050.94416,0.88581
3049.01562,0.88756
3047.08709,0.88933
3045.15855,0.89091
3043.23001,0.89242
3041.30148,0.89380
3039.37294,0.89496
3037.44441,0.89604
3035.51587,0.89719
3033.58733,0.89836
3031.65880,0.89905
3029.73026,0.89889
3027.80173,0.89844
3025.87319,0.89824
3023.94465,0.89807
3022.01612,0.89787
3020.08758,0.89791
3018.15904,0.89829
3016.23051,0.89887
3014.30197,0.89934
3012.37344,0.89936
3010.44490,0.89858
3008.51636,0.89728
3006.58783,0.89631
3004.65929,0.89596
3002.73076,0.89582
3000.80222,0.89584
2998.87368,0.89611
2996.94515,0.89627
2995.01661,0.89620
2993.08808,0.89599
2991.15954,0.89562
2989.23100,0.89531
2987.30247,0.89530
2985.37393,0.89554
2983.44539,0.89589
2981.51686,0.89611
2979.58832,0.89585
2977.65979,0.89510
2975.73125,0.89412
2973.80271,0.89277
2971.87418,0.89078
2969.94564,0.88840
2968.01711,0.88605
2966.08857,0.88381
2964.16003,0.88164
2962.23150,0.87947
2960.30296,0.87732
2958.37442,0.87549
2956.44589,0.87435
2954.51735,0.87386
2952.58882,0.87380
2950.66028,0.87416
2948.73174,0.87497
2946.80321,0.87589
2944.87467,0.87655
2942.94614,0.87672
2941.01760,0.87624
2939.08906,0.87512
2937.16053,0.87361
2935.23199,0.87204
2933.30346,0.87058
2931.37492,0.86929
2929.44638,0.86822
2927.51785,0.86740
2925.58931,0.86698
2923.66077,0.86708
2921.73224,0.86768
2919.80370,0.86864
2917.87517,0.86983
2915.94663,0.87104
2914.01809,0.87208
2912.08956,0.87295
2910.16102,0.87374
2908.23249,0.87456
2906.30395,0.87557
2904.37541,0.87676
2902.44688,0.87795
2900.51834,0.87917
2898.58980,0.88064
2896.66127,0.88225
2894.73273,0.88368
2892.80420,0.88490
2890.87566,0.88611
2888.94712,0.88730
2887.01859,0.88840
2885.09005,0.88929
2883.16152,0.88983
2881.23298,0.88995
2879.30444,0.88973
2877.37591,0.88937
2875.44737,0.88898
2873.51883,0.88841
2871.59030,0.88753
2869.66176,0.88674
2867.73323,0.88643
2865.80469,0.88638
2863.87615,0.88621
2861.94762,0.88587
2860.01908,0.88535
2858.09055,0.88456
2856.16201,0.88372
2854.23347,0.88330
2852.30494,0.88357
2850.37640,0.88452
2848.44787,0.88586
2846.51933,0.88717
2844.59079,0.88828
2842.66226,0.88925
2840.73372,0.89002
2838.80518,0.89041
2836.87665,0.89043
2834.94811,0.89037
2833.01958,0.89052
2831.09104,0.89103
2829.16250,0.89196
2827.23397,0.89324
2825.30543,0.89470
2823.37690,0.89613
2821.44836,0.89736
2819.51982,0.89832
2817.59129,0.89910
2815.66275,0.89977
2813.73421,0.90041
2811.80568,0.90100
2809.87714,0.90142
2807.94861,0.90161
2806.02007,0.90174
2804.09153,0.90198
2802.16300,0.90235
2800.23446,0.90272
2798.30593,0.90299
2796.37739,0.90322
2794.44885,0.90344
2792.52032,0.90365
2790.59178,0.90383
2788.66325,0.90397
2786.73471,0.90407
2784.80617,0.90421
2782.87764,0.90436
2780.94910,0.90446
2779.02056,0.90456
2777.09203,0.90473
2775.16349,0.90492
2773.23496,0.90505
2771.30642,0.90513
2769.37788,0.90523
2767.44935,0.90536
2765.52081,0.90546
2763.59228,0.90551
2761.66374,0.90557
2759.73520,0.90572
2757.80667,0.90591
2755.87813,0.90602
2753.94959,0.90605
2752.02106,0.90612
2750.09252,0.90626
2748.16399,0.90638
2746.23545,0.90643
2744.30691,0.90642
2742.37838,0.90643
2740.44984,0.90652
2738.52131,0.90663
2736.59277,0.90669
2734.66423,0.90671
2732.73570,0.90675
2730.80716,0.90681
2728.87863,0.90692
2726.95009,0.90703
2725.02155,0.90707
2723.09302,0.90708
2721.16448,0.90709
2719.23594,0.90711
2717.30741,0.90714
2715.37887,0.90717
2713.45034,0.90723
2711.52180,0.90729
2709.59326,0.90733
2707.66473,0.90736
2705.73619,0.90742
2703.80766,0.90749
2701.87912,0.90757
2699.95058,0.90764
2698.02205,0.90765
2696.09351,0.90760
2694.16497,0.90748
2692.23644,0.90729
2690.30790,0.90709
2688.37937,0.90691
2686.45083,0.90668
2684.52229,0.90645
2682.59376,0.90639
2680.66522,0.90651
2678.73669,0.90669
2676.80815,0.90681
2674.87961,0.90693
2672.95108,0.90709
2671.02254,0.90727
2669.09401,0.90743
2667.16547,0.90757
2665.23693,0.90769
2663.30840,0.90781
2661.37986,0.90791
2659.45132,0.90796
2657.52279,0.90799
2655.59425,0.90805
2653.66572,0.90812
2651.73718,0.90819
2649.80864,0.90826
2647.88011,0.90824
2645.95157,0.90816
2644.02304,0.90814
2642.09450,0.90826
2640.16596,0.90846
2638.23743,0.90859
2636.30889,0.90863
2634.38035,0.90869
2632.45182,0.90877
2630.52328,0.90883
2628.59475,0.90887
2626.66621,0.90898
2624.73767,0.90910
2622.80914,0.90912
2620.88060,0.90909
2618.95207,0.90918
2617.02353,0.90933
2615.09499,0.90944
2613.16646,0.90950
2611.23792,0.90955
2609.30939,0.90966
2607.38085,0.90983
2605.45231,0.91006
2603.52378,0.91033
2601.59524,0.91059
2599.66670,0.91079
2597.73817,0.91093
2595.80963,0.91104
2593.88110,0.91113
2591.95256,0.91118
2590.02402,0.91122
2588.09549,0.91128
2586.16695,0.91131
2584.23842,0.91129
2582.30988,0.91121
2580.38134,0.91125
2578.45281,0.91148
2576.52427,0.91171
2574.59573,0.91178
2572.66720,0.91184
2570.73866,0.91199
2568.81013,0.91215
2566.88159,0.91226
2564.95305,0.91233
2563.02452,0.91235
2561.09598,0.91239
2559.16745,0.91248
2557.23891,0.91256
2555.31037,0.91259
2553.38184,0.91261
2551.45330,0.91263
2549.52476,0.91271
2547.59623,0.91289
2545.66769,0.91312
2543.73916,0.91326
2541.81062,0.91329
2539.88208,0.91335
2537.95355,0.91347
2536.02501,0.91360
2534.09648,0.91371
2532.16794,0.91377
2530.23940,0.91381
2528.31087,0.91385
2526.38233,0.91387
2524.45380,0.91387
2522.52526,0.91384
2520.59672,0.91382
2518.66819,0.91385
2516.73965,0.91393
2514.81111,0.91395
2512.88258,0.91389
2510.95404,0.91383
2509.02551,0.91378
2507.09697,0.91366
2505.16843,0.91355
2503.23990,0.91362
2501.31136,0.91378
2499.38283,0.91392
2497.45429,0.91400
2495.52575,0.91402
2493.59722,0.91404
2491.66868,0.91423
2489.74014,0.91454
2487.81161,0.91470
2485.88307,0.91472
2483.95454,0.91483
2482.02600,0.91499
2480.09746,0.91511
2478.16893,0.91524
2476.24039,0.91536
2474.31186,0.91533
2472.38332,0.91523
2470.45478,0.91512
2468.52625,0.91497
2466.59771,0.91482
2464.66918,0.91471
2462.74064,0.91453
2460.81210,0.91431
2458.88357,0.91412
2456.95503,0.91396
2455.02649,0.91390
2453.09796,0.91394
2451.16942,0.91398
2449.24089,0.91404
2447.31235,0.91418
2445.38381,0.91434
2443.45528,0.91446
2441.52674,0.91456
2439.59821,0.91472
2437.66967,0.91492
2435.74113,0.91515
2433.81260,0.91542
2431.88406,0.91568
2429.95552,0.91582
2428.02699,0.91583
2426.09845,0.91579
2424.16992,0.91583
2422.24138,0.91588
2420.31284,0.91590
2418.38431,0.91599
2416.45577,0.91608
2414.52724,0.91606
2412.59870,0.91607
2410.67016,0.91620
2408.74163,0.91631
2406.81309,0.91632
2404.88456,0.91630
2402.95602,0.91635
2401.02748,0.91642
2399.09895,0.91654
2397.17041,0.91670
2395.24187,0.91679
2393.31334,0.91680
2391.38480,0.91679
2389.45627,0.91667
2387.52773,0.91637
2385.59919,0.91586
2383.67066,0.91512
2381.74212,0.91424
2379.81359,0.91327
2377.88505,0.91222
2375.95651,0.91109
2374.02798,0.90986
2372.09944,0.90846
2370.17090,0.90704
2368.24237,0.90571
2366.31383,0.90431
2364.38530,0.90301
2362.45676,0.90218
2360.52822,0.90156
2358.59969,0.90121
2356.67115,0.90186
2354.74262,0.90324
2352.81408,0.90482
2350.88554,0.90639
2348.95701,0.90735
2347.02847,0.90716
2345.09994,0.90600
2343.17140,0.90517
2341.24286,0.90519
2339.31433,0.90533
2337.38579,0.90556
2335.45725,0.90571
2333.52872,0.90544
2331.60018,0.90520
2329.67165,0.90529
2327.74311,0.90534
2325.81457,0.90545
2323.88604,0.90592
2321.95750,0.90679
2320.02897,0.90796
2318.10043,0.90919
2316.17189,0.91025
2314.24336,0.91104
2312.31482,0.91161
2310.38628,0.91214
2308.45775,0.91284
2306.52921,0.91375
2304.60068,0.91453
2302.67214,0.91494
2300.74360,0.91519
2298.81507,0.91550
2296.88653,0.91583
2294.95800,0.91615
2293.02946,0.91647
2291.10092,0.91682
2289.17239,0.91718
2287.24385,0.91753
2285.31532,0.91795
2283.38678,0.91848
2281.45824,0.91897
2279.52971,0.91931
2277.60117,0.91953
2275.67263,0.91966
2273.74410,0.91977
2271.81556,0.91995
2269.88703,0.92016
2267.95849,0.92034
2266.02995,0.92048
2264.10142,0.92059
2262.17288,0.92066
2260.24435,0.92067
2258.31581,0.92072
2256.38727,0.92100
2254.45874,0.92132
2252.53020,0.92144
2250.60166,0.92158
2248.67313,0.92200
2246.74459,0.92252
2244.81606,0.92281
2242.88752,0.92287
2240.95898,0.92298
2239.03045,0.92327
2237.10191,0.92367
2235.17338,0.92396
2233.24484,0.92410
2231.31630,0.92417
2229.38777,0.92407
2227.45923,0.92395
2225.53070,0.92401
2223.60216,0.92423
2221.67362,0.92450
2219.74509,0.92471
2217.81655,0.92477
2215.88801,0.92476
2213.95948,0.92488
2212.03094,0.92523
2210.10241,0.92552
2208.17387,0.92537
2206.24533,0.92517
2204.31680,0.92526
2202.38826,0.92541
2200.45973,0.92548
2198.53119,0.92563
2196.60265,0.92585
2194.67412,0.92613
2192.74558,0.92642
2190.81704,0.92673
2188.88851,0.92715
2186.95997,0.92756
2185.03144,0.92786
2183.10290,0.92826
2181.17436,0.92867
2179.24583,0.92896
2177.31729,0.92927
2175.38876,0.92948
2173.46022,0.92942
2171.53168,0.92910
2169.60315,0.92873
2167.67461,0.92860
2165.74607,0.92867
2163.81754,0.92886
2161.88900,0.92981
2159.96047,0.93185
2158.03193,0.93348
2156.10339,0.93356
2154.17486,0.93276
2152.24632,0.93173
2150.31779,0.93084
2148.38925,0.93051
2146.46071,0.93056
2144.53218,0.93053
2142.60364,0.93038
2140.67511,0.93027
2138.74657,0.93026
2136.81803,0.93033
2134.88950,0.93013
2132.96096,0.92960
2131.03242,0.92897
2129.10389,0.92831
2127.17535,0.92785
2125.24682,0.92781
2123.31828,0.92791
2121.38974,0.92778
2119.46121,0.92749
2117.53267,0.92737
2115.60414,0.92741
2113.67560,0.92745
2111.74706,0.92750
2109.81853,0.92741
2107.88999,0.92727
2105.96145,0.92737
2104.03292,0.92753
2102.10438,0.92745
2100.17585,0.92738
2098.24731,0.92757
2096.31877,0.92778
2094.39024,0.92775
2092.46170,0.92772
2090.53317,0.92792
2088.60463,0.92803
2086.67609,0.92780
2084.74756,0.92763
2082.81902,0.92768
2080.89049,0.92783
2078.96195,0.92805
2077.03341,0.92823
2075.10488,0.92822
2073.17634,0.92821
2071.24780,0.92839
2069.31927,0.92884
2067.39073,0.92969
2065.46220,0.93060
2063.53366,0.93069
2061.60512,0.93026
2059.67659,0.93014
2057.74805,0.93017
2055.81952,0.93012
2053.89098,0.93005
2051.96244,0.93005
2050.03391,0.93043
2048.10537,0.93111
2046.17683,0.93196
2044.24830,0.93314
2042.31976,0.93443
2040.39123,0.93505
2038.46269,0.93503
2036.53415,0.93526
2034.60562,0.93587
2032.67708,0.93627
2030.74855,0.93633
2028.82001,0.93640
2026.89147,0.93665
2024.96294,0.93704
2023.03440,0.93757
2021.10587,0.93848
2019.17733,0.93999
2017.24879,0.94086
2015.32026,0.93993
2013.39172,0.93843
2011.46318,0.93745
2009.53465,0.93683
2007.60611,0.93652
2005.67758,0.93617
2003.74904,0.93541
2001.82050,0.93473
1999.89197,0.93459
1997.96343,0.93472
1996.03490,0.93524
1994.10636,0.93660
1992.17782,0.93785
1990.24929,0.93744
1988.32075,0.93591
1986.39221,0.93442
1984.46368,0.93342
1982.53514,0.93263
1980.60661,0.93198
1978.67807,0.93236
1976.74953,0.93363
1974.82100,0.93441
1972.89246,0.93430
1970.96393,0.93445
1969.03539,0.93568
1967.10685,0.93642
1965.17832,0.93523
1963.24978,0.93371
1961.32125,0.93291
1959.39271,0.93252
1957.46417,0.93276
1955.53564,0.93329
1953.60710,0.93336
1951.67856,0.93332
1949.75003,0.93368
1947.82149,0.93471
1945.89296,0.93657
1943.96442,0.93840
1942.03588,0.93794
1940.10735,0.93520
1938.17881,0.93311
1936.25028,0.93255
1934.32174,0.93259
1932.39320,0.93238
1930.46467,0.93186
1928.53613,0.93157
1926.60759,0.93230
1924.67906,0.93446
1922.75052,0.93602
1920.82199,0.93566
1918.89345,0.93510
1916.96491,0.93372
1915.03638,0.93142
1913.10784,0.93068
1911.17931,0.93195
1909.25077,0.93289
1907.32223,0.93181
1905.39370,0.93016
1903.46516,0.92916
1901.53663,0.92850
1899.60809,0.92833
1897.67955,0.92942
1895.75102,0.93098
1893.82248,0.93147
1891.89394,0.93204
1889.96541,0.93317
1888.03687,0.93261
1886.10834,0.93123
1884.17980,0.93064
1882.25126,0.93034
1880.32273,0.93028
1878.39419,0.93046
1876.46566,0.93069
1874.53712,0.93139
1872.60858,0.93396
1870.68005,0.93978
1868.75151,0.94517
1866.82297,0.94245
1864.89444,0.93649
1862.96590,0.93361
1861.03737,0.93334
1859.10883,0.93346
1857.18029,0.93296
1855.25176,0.93232
1853.32322,0.93218
1851.39469,0.93298
1849.46615,0.93539
1847.53761,0.93949
1845.60908,0.94382
1843.68054,0.94362
1841.75200,0.93855
1839.82347,0.93518
1837.89493,0.93452
1835.96640,0.93400
1834.03786,0.93389
1832.10932,0.93693
1830.18079,0.94139
1828.25225,0.94119
1826.32372,0.93847
1824.39518,0.93590
1822.46664,0.93253
1820.53811,0.93001
1818.60957,0.92936
1816.68104,0.92944
1814.75250,0.93019
1812.82396,0.93261
1810.89543,0.93491
1808.96689,0.93430
1807.03835,0.93261
1805.10982,0.93277
1803.18128,0.93570
1801.25275,0.93959
1799.32421,0.94107
1797.39567,0.94129
1795.46714,0.94350
1793.53860,0.94766
1791.61007,0.94754
1789.68153,0.94104
1787.75299,0.93641
1785.82446,0.93579
1783.89592,0.93701
1781.96738,0.93857
1780.03885,0.93908
1778.11031,0.93850
1776.18178,0.94050
1774.25324,0.94729
1772.32470,0.95364
1770.39617,0.94995
1768.46763,0.94225
1766.53910,0.93736
1764.61056,0.93689
1762.68202,0.93971
1760.75349,0.94121
1758.82495,0.94050
1756.89642,0.93956
1754.96788,0.93874
1753.03934,0.94120
1751.11081,0.94911
1749.18227,0.95608
1747.25373,0.95437
1745.32520,0.94972
1743.39666,0.94702
1741.46813,0.94667
1739.53959,0.94685
1737.61105,0.94724
1735.68252,0.95122
1733.75398,0.95662
1731.82545,0.95248
1729.89691,0.94421
1727.96837,0.93799
1726.03984,0.93572
1724.11130,0.93670
1722.18276,0.93909
1720.25423,0.94457
1718.32569,0.95689
1716.39716,0.96442
1714.46862,0.95304
1712.54008,0.94187
1710.61155,0.93779
1708.68301,0.94020
1706.75448,0.94748
1704.82594,0.95387
1702.89740,0.95653
1700.96887,0.96241
1699.04033,0.97190
1697.11180,0.97116
1695.18326,0.95873
1693.25472,0.94903
1691.32619,0.94750
1689.39765,0.95123
1687.46911,0.95687
1685.54058,0.96443
1683.61204,0.96788
1681.68351,0.95990
1679.75497,0.95240
1677.82643,0.94953
1675.89790,0.95126
1673.96936,0.95447
1672.04083,0.95818
1670.11229,0.96055
1668.18375,0.95365
1666.25522,0.94680
1664.32668,0.94703
1662.39814,0.94896
1660.46961,0.94632
1658.54107,0.94508
1656.61254,0.94978
1654.68400,0.96123
1652.75546,0.97039
1650.82693,0.96737
1648.89839,0.96930
1646.96986,0.97054
1645.04132,0.95852
1643.11278,0.94846
1641.18425,0.94575
1639.25571,0.94911
1637.32718,0.95609
1635.39864,0.95200
1633.47010,0.93653
1631.54157,0.92854
1629.61303,0.92793
1627.68449,0.93140
1625.75596,0.93596
1623.82742,0.94024
1621.89889,0.94012
1619.97035,0.93867
1618.04181,0.94106
1616.11328,0.94023
1614.18474,0.93282
1612.25621,0.92889
1610.32767,0.93002
1608.39913,0.93232
1606.47060,0.93268
1604.54206,0.93272
1602.61352,0.93276
1600.68499,0.93131
1598.75645,0.92970
1596.82792,0.92959
1594.89938,0.92882
1592.97084,0.92495
1591.04231,0.91841
1589.11377,0.90969
1587.18524,0.89997
1585.25670,0.89131
1583.32816,0.88490
1581.39963,0.88231
1579.47109,0.88602
1577.54256,0.89768
1575.61402,0.90950
1573.68548,0.91198
1571.75695,0.91672
1569.82841,0.92742
1567.89987,0.93296
1565.97134,0.93101
1564.04280,0.92787
1562.11427,0.92653
1560.18573,0.92864
1558.25719,0.92188
1556.32866,0.91026
1554.40012,0.90965
1552.47159,0.91473
1550.54305,0.92265
1548.61451,0.93023
1546.68598,0.93838
1544.75744,0.95330
1542.82890,0.97598
1540.90037,0.98906
1538.97183,0.97073
1537.04330,0.95756
1535.11476,0.95571
1533.18622,0.95497
1531.25769,0.95040
1529.32915,0.94977
1527.40062,0.95591
1525.47208,0.96444
1523.54354,0.97235
1521.61501,0.97578
1519.68647,0.96983
1517.75793,0.96202
1515.82940,0.95187
1513.90086,0.94241
1511.97233,0.93866
1510.04379,0.94100
1508.11525,0.93360
1506.18672,0.86596
1504.25818,0.80955
1502.32965,0.77830
1500.40111,0.75451
1498.47257,0.74415
1496.54404,0.75617
1494.61550,0.77717
1492.68697,0.79659
1490.75843,0.81647
1488.82989,0.81889
1486.90136,0.79194
1484.97282,0.76554
1483.04428,0.75232
1481.11575,0.75342
1479.18721,0.76565
1477.25868,0.78601
1475.33014,0.81416
1473.40160,0.84505
1471.47307,0.85996
1469.54453,0.86029
1467.61600,0.86161
1465.68746,0.86618
1463.75892,0.86864
1461.83039,0.87010
1459.90185,0.87694
1457.97331,0.88530
1456.04478,0.86666
1454.11624,0.83790
1452.18771,0.81618
1450.25917,0.80018
1448.33063,0.79205
1446.40210,0.79239
1444.47356,0.79697
1442.54503,0.79617
1440.61649,0.78163
1438.68795,0.75414
1436.75942,0.71896
1434.83088,0.69971
1432.90235,0.70584
1430.97381,0.72606
1429.04527,0.75256
1427.11674,0.77724
1425.18820,0.80135
1423.25966,0.82360
1421.33113,0.83822
1419.40259,0.84742
1417.47406,0.84847
1415.54552,0.84357
1413.61698,0.84149
1411.68845,0.84305
1409.75991,0.84579
1407.83138,0.84916
1405.90284,0.85402
1403.97430,0.85859
1402.04577,0.86300
1400.11723,0.87125
1398.18869,0.88262
1396.26016,0.89110
1394.33162,0.89330
1392.40309,0.89132
1390.47455,0.89070
1388.54601,0.89298
1386.61748,0.89409
1384.68894,0.89184
1382.76041,0.88994
1380.83187,0.88880
1378.90333,0.88679
1376.97480,0.88475
1375.04626,0.88316
1373.11773,0.88028
1371.18919,0.87881
1369.26065,0.88153
1367.33212,0.88602
1365.40358,0.89104
1363.47504,0.89752
1361.54651,0.90148
1359.61797,0.90123
1357.68944,0.90169
1355.76090,0.90413
1353.83236,0.90680
1351.90383,0.90948
1349.97529,0.91278
1348.04676,0.91566
1346.11822,0.91734
1344.18968,0.91873
1342.26115,0.92141
1340.33261,0.92426
1338.40407,0.92182
1336.47554,0.91431
1334.54700,0.90719
1332.61847,0.90097
1330.68993,0.89308
1328.76139,0.88135
1326.83286,0.86522
1324.90432,0.84539
1322.97579,0.82344
1321.04725,0.80073
1319.11871,0.77758
1317.19018,0.75709
1315.26164,0.74377
1313.33311,0.73767
1311.40457,0.73689
1309.47603,0.74074
1307.54750,0.74878
1305.61896,0.75966
1303.69042,0.77240
1301.76189,0.78666
1299.83335,0.80165
1297.90482,0.81637
1295.97628,0.82976
1294.04774,0.84111
1292.11921,0.85008
1290.19067,0.85550
1288.26214,0.85470
1286.33360,0.84559
1284.40506,0.82971
1282.47653,0.81183
1280.54799,0.79762
1278.61945,0.79056
1276.69092,0.78972
1274.76238,0.79176
1272.83385,0.79553
1270.90531,0.80286
1268.97677,0.81464
1267.04824,0.82863
1265.11970,0.84191
1263.19117,0.85367
1261.26263,0.86426
1259.33409,0.87280
1257.40556,0.87799
1255.47702,0.87956
1253.54849,0.87764
1251.61995,0.87297
1249.69141,0.86770
1247.76288,0.86462
1245.83434,0.86540
1243.90580,0.86906
1241.97727,0.87259
1240.04873,0.87331
1238.12020,0.86957
1236.19166,0.85974
1234.26312,0.84183
1232.33459,0.81483
1230.40605,0.78117
1228.47752,0.74860
1226.54898,0.72856
1224.62044,0.72997
1222.69191,0.75231
1220.76337,0.78548
1218.83483,0.81799
1216.90630,0.84381
1214.97776,0.86274
1213.04923,0.87673
1211.12069,0.88711
1209.19215,0.89451
1207.26362,0.89959
1205.33508,0.90305
1203.40655,0.90548
1201.47801,0.90724
1199.54947,0.90817
1197.62094,0.90747
1195.69240,0.90406
1193.76387,0.89751
1191.83533,0.88877
1189.90679,0.88039
1187.97826,0.87548
1186.04972,0.87583
1184.12118,0.88066
1182.19265,0.88675
1180.26411,0.89001
1178.33558,0.88769
1176.40704,0.87943
1174.47850,0.86660
1172.54997,0.85166
1170.62143,0.83762
1168.69290,0.82717
1166.76436,0.82160
1164.83582,0.82019
1162.90729,0.82123
1160.97875,0.82381
1159.05021,0.82715
1157.12168,0.82834
1155.19314,0.82255
1153.26461,0.80650
1151.33607,0.78067
1149.40753,0.74844
1147.47900,0.71416
1145.55046,0.68179
1143.62193,0.65469
1141.69339,0.63642
1139.76485,0.63076
1137.83632,0.63934
1135.90778,0.65882
1133.97924,0.68165
1132.05071,0.70186
1130.12217,0.71854
1128.19364,0.73339
1126.26510,0.74715
1124.33656,0.75890
1122.40803,0.76688
1120.47949,0.76950
1118.55096,0.76681
1116.62242,0.76183
1114.69388,0.75922
1112.76535,0.76120
1110.83681,0.76543
1108.90828,0.76735
1106.97974,0.76379
1105.05120,0.75523
1103.12267,0.74556
1101.19413,0.73964
1099.26559,0.74086
1097.33706,0.74976
1095.40852,0.76384
1093.47999,0.77891
1091.55145,0.79248
1089.62291,0.80473
1087.69438,0.81576
1085.76584,0.82389
1083.83731,0.82605
1081.90877,0.81758
1079.98023,0.79365
1078.05170,0.75577
1076.12316,0.71729
1074.19462,0.69711
1072.26609,0.70454
1070.33755,0.73255
1068.40902,0.76686
1066.48048,0.79747
1064.55194,0.82119
1062.62341,0.83838
1060.69487,0.84990
1058.76634,0.85619
1056.83780,0.85760
1054.90926,0.85488
1052.98073,0.84878
1051.05219,0.83994
1049.12366,0.82940
1047.19512,0.81899
1045.26658,0.81119
1043.33805,0.80842
1041.40951,0.81200
1039.48097,0.82128
1037.55244,0.83363
1035.62390,0.84551
1033.69537,0.85334
1031.76683,0.85356
1029.83829,0.84382
1027.90976,0.82557
1025.98122,0.80352
1024.05269,0.78184
1022.12415,0.76421
1020.19561,0.75526
1018.26708,0.75519
1016.33854,0.75354
1014.41000,0.73495
1012.48147,0.69539
1010.55293,0.65124
1008.62440,0.62713
1006.69586,0.63432
1004.76732,0.66376
1002.83879,0.69677
1000.91025,0.72023
998.98172,0.73644
997.05318,0.75630
995.12464,0.78199
993.19611,0.80592
991.26757,0.82332
989.33904,0.83526
987.41050,0.84402
985.48196,0.85117
983.55343,0.85734
981.62489,0.86241
979.69635,0.86621
977.76782,0.86897
975.83928,0.87121
973.91075,0.87336
971.98221,0.87579
970.05367,0.87878
968.12514,0.88225
966.19660,0.88589
964.26807,0.88933
962.33953,0.89227
960.41099,0.89471
958.48246,0.89681
956.55392,0.89863
954.62538,0.90020
952.69685,0.90151
950.76831,0.90255
948.83978,0.90327
946.91124,0.90362
944.98270,0.90323
943.05417,0.90143
941.12563,0.89762
939.19710,0.89225
937.26856,0.88716
935.34002,0.88400
933.41149,0.88211
931.48295,0.87833
929.55442,0.86892
927.62588,0.85255
925.69734,0.83254
923.76881,0.81587
921.84027,0.80801
919.91173,0.80803
917.98320,0.80974
916.05466,0.80729
914.12613,0.79885
912.19759,0.78585
910.26905,0.77071
908.34052,0.75553
906.41198,0.74216
904.48345,0.73233
902.55491,0.72728
900.62637,0.72753
898.69784,0.73302
896.76930,0.74324
894.84076,0.75707
892.91223,0.77292
890.98369,0.78915
889.05516,0.80438
887.12662,0.81763
885.19808,0.82851
883.26955,0.83708
881.34101,0.84362
879.41248,0.84876
877.48394,0.85333
875.55540,0.85797
873.62687,0.86270
871.69833,0.86687
869.76980,0.86963
867.84126,0.87017
865.91272,0.86805
863.98419,0.86375
862.05565,0.85851
860.12711,0.85377
858.19858,0.85082
856.27004,0.85039
854.34151,0.85241
852.41297,0.85653
850.48443,0.86238
848.55590,0.86923
846.62736,0.87615
844.69883,0.88271
842.77029,0.88893
840.84175,0.89483
838.91322,0.90023
836.98468,0.90472
835.05614,0.90791
833.12761,0.90969
831.19907,0.90998
829.27054,0.90872
827.34200,0.90594
825.41346,0.90181
823.48493,0.89686
821.55639,0.89192
819.62786,0.88769
817.69932,0.88435
815.77078,0.88177
813.84225,0.87976
811.91371,0.87800
809.98517,0.87638
808.05664,0.87533
806.12810,0.87553
804.19957,0.87712
802.27103,0.87938
800.34249,0.88131
798.41396,0.88253
796.48542,0.88320
794.55689,0.88316
792.62835,0.88163
790.69981,0.87829
788.77128,0.87331
786.84274,0.86574
784.91421,0.85397
782.98567,0.83688
781.05713,0.81449
779.12860,0.79221
777.20006,0.78067
775.27152,0.78427
773.34299,0.79610
771.41445,0.80904
769.48592,0.82297
767.55738,0.83825
765.62884,0.84998
763.70031,0.85182
761.77177,0.84139
759.84324,0.82218
757.91470,0.80245
755.98616,0.78885
754.05763,0.78083
752.12909,0.77433
750.20055,0.76800
748.27202,0.76240
746.34348,0.75657
744.41495,0.74818
742.48641,0.73659
740.55787,0.72440
738.62934,0.71544
736.70080,0.71003
734.77227,0.70379
732.84373,0.69239
730.91519,0.67617
728.98666,0.66160
727.05812,0.65924
725.12959,0.67486
723.20105,0.70004
721.27251,0.71791
719.34398,0.71758
717.41544,0.70246
715.48690,0.68453
713.55837,0.67410
711.62983,0.67357
709.70130,0.67732
707.77276,0.68134
705.84422,0.68770
703.91569,0.69705
701.98715,0.70284
700.05862,0.69784
698.13008,0.68112
696.20154,0.65714
694.27301,0.63134
692.34447,0.60907
690.41593,0.59961
688.48740,0.61327
686.55886,0.64872
684.63033,0.69090
682.70179,0.72578
680.77325,0.74899
678.84472,0.76330
676.91618,0.77286
674.98765,0.78047
673.05911,0.78695
671.13057,0.79224
669.20204,0.79991
667.27350,0.81245
665.34497,0.82093
663.41643,0.82647
661.48789,0.83174
659.55936,0.83616
657.63082,0.83930
655.70228,0.83777
653.77375,0.82675
651.84521,0.81281
649.91668,0.81208
647.98814,0.82842
646.05960,0.84904
644.13107,0.86312
642.20253,0.86771
640.27400,0.86255
638.34546,0.84996
636.41692,0.83689
634.48839,0.83186
632.55985,0.83816
630.63131,0.85138
628.70278,0.86522
626.77424,0.87686
624.84571,0.88573
622.91717,0.89128
620.98863,0.89226
619.06010,0.88767
617.13156,0.88222
615.20303,0.88415
613.27449,0.89264
611.34595,0.90032
609.41742,0.90436
607.48888,0.90591
605.56035,0.90572
603.63181,0.90371
601.70327,0.89953
599.77474,0.89276
597.84620,0.88392
595.91766,0.87509
593.98913,0.86875
592.06059,0.86580
590.13206,0.86199
588.20352,0.84566
586.27498,0.80153
584.34645,0.73230
582.41791,0.67296
580.48938,0.65445
578.56084,0.67127
576.63230,0.70128
574.70377,0.73233
572.77523,0.76202
570.84669,0.79171
568.91816,0.81979
566.98962,0.84230
565.06109,0.85824
563.13255,0.86935
561.20401,0.87644
559.27548,0.87786
557.34694,0.86987
555.41841,0.85087
553.48987,0.82935
551.56133,0.81948
549.63280,0.82646
547.70426,0.84130
545.77573,0.84862
543.84719,0.83795
541.91865,0.80867
539.99012,0.76839
538.06158,0.73147
536.13304,0.71346
534.20451,0.72185
532.27597,0.75020
530.34744,0.78250
528.41890,0.80653
526.49036,0.81997
524.56183,0.82416
522.63329,0.82246
520.70476,0.81867
518.77622,0.81401
516.84768,0.80480
514.91915,0.78657
512.99061,0.75788
511.06207,0.71609
509.13354,0.66421
507.20500,0.61519
505.27647,0.58648
503.34793,0.58377
501.41939,0.59633
499.49086,0.61451
497.56232,0.64446
495.63379,0.68971
493.70525,0.73733
491.77671,0.77217
489.84818,0.78833
487.91964,0.78923
485.99110,0.77891
484.06257,0.76005
482.13403,0.74062
480.20550,0.72920
478.27696,0.72644
476.34842,0.72843
474.41989,0.73248
472.49135,0.73654
470.56282,0.73886
468.63428,0.74204
466.70574,0.74844
464.77721,0.75756
462.84867,0.76916
460.92014,0.78249
458.99160,0.79697
457.06306,0.80951
455.13453,0.81484
453.20599,0.81564
451.27745,0.81425
449.34892,0.81159
447.42038,0.80838
445.49185,0.80492
443.56331,0.80283
441.63477,0.80116
439.70624,0.79861
437.77770,0.79732
435.84917,0.79805
433.92063,0.79896
431.99209,0.79890
430.06356,0.79791
428.13502,0.79741
426.20648,0.79913
424.27795,0.80328
422.34941,0.80962
420.42088,0.82005
418.49234,0.83311
416.56380,0.83756
414.63527,0.83833
412.70673,0.83962
410.77820,0.84081
408.84966,0.84441
406.92112,0.85067
404.99259,0.85497
403.06405,0.85684
401.13552,0.86021
399.20698,0.86554
