3997.85540,0.95800
3995.92686,0.95804
3993.99833,0.95808
3992.06979,0.95810
3990.14125,0.95811
3988.21272,0.95812
3986.28418,0.95814
3984.35565,0.95814
3982.42711,0.95818
3980.49857,0.95824
3978.57004,0.95832
3976.64150,0.95843
3974.71297,0.95850
3972.78443,0.95845
3970.85589,0.95834
3968.92736,0.95822
3966.99882,0.95810
3965.07029,0.95803
3963.14175,0.95805
3961.21321,0.95813
3959.28468,0.95817
3957.35614,0.95814
3955.42760,0.95815
3953.49907,0.95818
3951.57053,0.95812
3949.64200,0.95806
3947.71346,0.95808
3945.78492,0.95807
3943.85639,0.95801
3941.92785,0.95808
3939.99932,0.95828
3938.07078,0.95840
3936.14224,0.95840
3934.21371,0.95838
3932.28517,0.95846
3930.35663,0.95848
3928.42810,0.95833
3926.49956,0.95820
3924.57103,0.95830
3922.64249,0.95848
3920.71395,0.95855
3918.78542,0.95866
3916.85688,0.95889
3914.92835,0.95902
3912.99981,0.95899
3911.07127,0.95895
3909.14274,0.95897
3907.21420,0.95898
3905.28566,0.95900
3903.35713,0.95921
3901.42859,0.95932
3899.50006,0.95914
3897.57152,0.95895
3895.64298,0.95887
3893.71445,0.95888
3891.78591,0.95904
3889.85738,0.95911
3887.92884,0.95896
3886.00030,0.95895
3884.07177,0.95917
3882.14323,0.95932
3880.21470,0.95952
3878.28616,0.95965
3876.35762,0.95954
3874.42909,0.95942
3872.50055,0.95930
3870.57201,0.95928
3868.64348,0.95955
3866.71494,0.95969
3864.78641,0.95967
3862.85787,0.95973
3860.92933,0.95976
3859.00080,0.95974
3857.07226,0.95980
3855.14373,0.96008
3853.21519,0.96071
3851.28665,0.96094
3849.35812,0.96068
3847.42958,0.96035
3845.50104,0.96011
3843.57251,0.95996
3841.64397,0.95980
3839.71544,0.95993
3837.78690,0.96047
3835.85836,0.96061
3833.92983,0.96041
3832.00129,0.96034
3830.07276,0.96038
3828.14422,0.96039
3826.21568,0.96044
3824.28715,0.96048
3822.35861,0.96053
3820.43008,0.96070
3818.50154,0.96073
3816.57300,0.96065
3814.64447,0.96065
3812.71593,0.96064
3810.78739,0.96062
3808.85886,0.96067
3806.93032,0.96078
3805.00179,0.96077
3803.07325,0.96085
3801.14471,0.96119
3799.21618,0.96124
3797.28764,0.96113
3795.35911,0.96113
3793.43057,0.96102
3791.50203,0.96085
3789.57350,0.96084
3787.64496,0.96100
3785.71642,0.96120
3783.78789,0.96134
3781.85935,0.96133
3779.93082,0.96133
3778.00228,0.96148
3776.07374,0.96157
3774.14521,0.96153
3772.21667,0.96144
3770.28814,0.96146
3768.35960,0.96168
3766.43106,0.96188
3764.50253,0.96188
3762.57399,0.96169
3760.64546,0.96153
3758.71692,0.96164
3756.78838,0.96185
3754.85985,0.96182
3752.93131,0.96163
3751.00277,0.96181
3749.07424,0.96236
3747.14570,0.96231
3745.21717,0.96196
3743.28863,0.96190
3741.36009,0.96203
3739.43156,0.96208
3737.50302,0.96212
3735.57449,0.96232
3733.64595,0.96238
3731.71741,0.96224
3729.78888,0.96212
3727.86034,0.96204
3725.93180,0.96201
3724.00327,0.96198
3722.07473,0.96198
3720.14620,0.96213
3718.21766,0.96228
3716.28912,0.96228
3714.36059,0.96222
3712.43205,0.96226
3710.50352,0.96254
3708.57498,0.96271
3706.64644,0.96262
3704.71791,0.96249
3702.78937,0.96250
3700.86084,0.96262
3698.93230,0.96254
3697.00376,0.96230
3695.07523,0.96213
3693.14669,0.96215
3691.21815,0.96239
3689.28962,0.96270
3687.36108,0.96266
3685.43255,0.96242
3683.50401,0.96219
3681.57547,0.96206
3679.64694,0.96203
3677.71840,0.96210
3675.78987,0.96240
3673.86133,0.96254
3671.93279,0.96240
3670.00426,0.96254
3668.07572,0.96268
3666.14718,0.96247
3664.21865,0.96221
3662.29011,0.96201
3660.36158,0.96181
3658.43304,0.96156
3656.50450,0.96116
3654.57597,0.96058
3652.64743,0.96004
3650.71890,0.95962
3648.79036,0.95941
3646.86182,0.95939
3644.93329,0.95939
3643.00475,0.95947
3641.07622,0.95972
3639.14768,0.96005
3637.21914,0.96034
3635.29061,0.96055
3633.36207,0.96070
3631.43353,0.96079
3629.50500,0.96116
3627.57646,0.96179
3625.64793,0.96182
3623.71939,0.96162
3621.79085,0.96152
3619.86232,0.96169
3617.93378,0.96204
3616.00525,0.96209
3614.07671,0.96200
3612.14817,0.96212
3610.21964,0.96235
3608.29110,0.96245
3606.36256,0.96236
3604.43403,0.96218
3602.50549,0.96194
3600.57696,0.96174
3598.64842,0.96183
3596.71988,0.96209
3594.79135,0.96221
3592.86281,0.96219
3590.93428,0.96208
3589.00574,0.96192
3587.07720,0.96192
3585.14867,0.96206
3583.22013,0.96204
3581.29160,0.96201
3579.36306,0.96208
3577.43452,0.96218
3575.50599,0.96218
3573.57745,0.96205
3571.64891,0.96185
3569.72038,0.96168
3567.79184,0.96170
3565.86331,0.96185
3563.93477,0.96187
3562.00623,0.96191
3560.07770,0.96193
3558.14916,0.96186
3556.22063,0.96177
3554.29209,0.96173
3552.36355,0.96173
3550.43502,0.96175
3548.50648,0.96175
3546.57794,0.96178
3544.64941,0.96182
3542.72087,0.96175
3540.79234,0.96166
3538.86380,0.96164
3536.93526,0.96166
3535.00673,0.96170
3533.07819,0.96178
3531.14966,0.96188
3529.22112,0.96193
3527.29258,0.96193
3525.36405,0.96194
3523.43551,0.96201
3521.50697,0.96203
3519.57844,0.96194
3517.64990,0.96175
3515.72137,0.96151
3513.79283,0.96137
3511.86429,0.96146
3509.93576,0.96165
3508.00722,0.96174
3506.07869,0.96171
3504.15015,0.96171
3502.22161,0.96178
3500.29308,0.96180
3498.36454,0.96177
3496.43601,0.96175
3494.50747,0.96175
3492.57893,0.96174
3490.65040,0.96171
3488.72186,0.96171
3486.79332,0.96172
3484.86479,0.96171
3482.93625,0.96172
3481.00772,0.96172
3479.07918,0.96164
3477.15064,0.96155
3475.22211,0.96156
3473.29357,0.96160
3471.36504,0.96163
3469.43650,0.96172
3467.50796,0.96179
3465.57943,0.96168
3463.65089,0.96150
3461.72235,0.96138
3459.79382,0.96134
3457.86528,0.96132
3455.93675,0.96131
3454.00821,0.96127
3452.07967,0.96120
3450.15114,0.96120
3448.22260,0.96125
3446.29407,0.96127
3444.36553,0.96123
3442.43699,0.96114
3440.50846,0.96101
3438.57992,0.96094
3436.65139,0.96096
3434.72285,0.96092
3432.79431,0.96083
3430.86578,0.96073
3428.93724,0.96054
3427.00870,0.96037
3425.08017,0.96017
3423.15163,0.95986
3421.22310,0.95958
3419.29456,0.95941
3417.36602,0.95926
3415.43749,0.95916
3413.50895,0.95919
3411.58042,0.95923
3409.65188,0.95923
3407.72334,0.95923
3405.79481,0.95924
3403.86627,0.95921
3401.93773,0.95917
3400.00920,0.95911
3398.08066,0.95901
3396.15213,0.95886
3394.22359,0.95866
3392.29505,0.95844
3390.36652,0.95822
3388.43798,0.95800
3386.50945,0.95773
3384.58091,0.95741
3382.65237,0.95705
3380.72384,0.95671
3378.79530,0.95639
3376.86677,0.95599
3374.93823,0.95550
3373.00969,0.95509
3371.08116,0.95483
3369.15262,0.95458
3367.22408,0.95414
3365.29555,0.95339
3363.36701,0.95256
3361.43848,0.95181
3359.50994,0.95095
3357.58140,0.94993
3355.65287,0.94903
3353.72433,0.94841
3351.79580,0.94783
3349.86726,0.94686
3347.93872,0.94547
3346.01019,0.94416
3344.08165,0.94311
3342.15311,0.94206
3340.22458,0.94099
3338.29604,0.93977
3336.36751,0.93806
3334.43897,0.93616
3332.51043,0.93477
3330.58190,0.93412
3328.65336,0.93420
3326.72483,0.93466
3324.79629,0.93470
3322.86775,0.93404
3320.93922,0.93323
3319.01068,0.93275
3317.08215,0.93267
3315.15361,0.93286
3313.22507,0.93311
3311.29654,0.93335
3309.36800,0.93348
3307.43946,0.93335
3305.51093,0.93305
3303.58239,0.93261
3301.65386,0.93201
3299.72532,0.93142
3297.79678,0.93101
3295.86825,0.93062
3293.93971,0.93004
3292.01118,0.92921
3290.08264,0.92804
3288.15410,0.92678
3286.22557,0.92578
3284.29703,0.92493
3282.36849,0.92404
3280.43996,0.92312
3278.51142,0.92221
3276.58289,0.92123
3274.65435,0.92008
3272.72581,0.91881
3270.79728,0.91748
3268.86874,0.91596
3266.94021,0.91424
3265.01167,0.91255
3263.08313,0.91097
3261.15460,0.90939
3259.22606,0.90776
3257.29753,0.90604
3255.36899,0.90416
3253.44045,0.90217
3251.51192,0.90022
3249.58338,0.89827
3247.65484,0.89623
3245.72631,0.89401
3243.79777,0.89158
3241.86924,0.88906
3239.94070,0.88649
3238.01216,0.88381
3236.08363,0.88105
3234.15509,0.87833
3232.22656,0.87554
3230.29802,0.87260
3228.36948,0.86957
3226.44095,0.86652
3224.51241,0.86349
3222.58387,0.86053
3220.65534,0.85759
3218.72680,0.85465
3216.79827,0.85187
3214.86973,0.84941
3212.94119,0.84726
3211.01266,0.84550
3209.08412,0.84428
3207.15559,0.84349
3205.22705,0.84289
3203.29851,0.84253
3201.36998,0.84261
3199.44144,0.84312
3197.51290,0.84391
3195.58437,0.84484
3193.65583,0.84583
3191.72730,0.84686
3189.79876,0.84798
3187.87022,0.84921
3185.94169,0.85057
3184.01315,0.85204
3182.08462,0.85352
3180.15608,0.85493
3178.22754,0.85629
3176.29901,0.85753
3174.37047,0.85854
3172.44194,0.85934
3170.51340,0.85992
3168.58486,0.86019
3166.65633,0.86011
3164.72779,0.85982
3162.79925,0.85968
3160.87072,0.85992
3158.94218,0.86059
3157.01365,0.86174
3155.08511,0.86331
3153.15657,0.86488
3151.22804,0.86611
3149.29950,0.86714
3147.37097,0.86833
3145.44243,0.86992
3143.51389,0.87192
3141.58536,0.87425
3139.65682,0.87670
3137.72828,0.87907
3135.79975,0.88139
3133.87121,0.88381
3131.94268,0.88636
3130.01414,0.88879
3128.08560,0.89097
3126.15707,0.89300
3124.22853,0.89509
3122.30000,0.89722
3120.37146,0.89920
3118.44292,0.90094
3116.51439,0.90246
3114.58585,0.90380
3112.65732,0.90504
3110.72878,0.90627
3108.80024,0.90749
3106.87171,0.90864
3104.94317,0.90962
3103.01463,0.91030
3101.08610,0.91059
3099.15756,0.91049
3097.22903,0.91041
3095.30049,0.91099
3093.37195,0.91236
3091.44342,0.91399
3089.51488,0.91535
3087.58635,0.91635
3085.65781,0.91713
3083.72927,0.91762
3081.80074,0.91761
3079.87220,0.91701
3077.94366,0.91606
3076.01513,0.91521
3074.08659,0.91471
3072.15806,0.91452
3070.22952,0.91437
3068.30098,0.91381
3066.37245,0.91246
3064.44391,0.91019
3062.51538,0.90733
3060.58684,0.90473
3058.65830,0.90309
3056.72977,0.90196
3054.80123,0.90044
3052.87270,0.89931
3050.94416,0.90050
3049.01562,0.90426
3047.08709,0.90860
3045.15855,0.91177
3043.23001,0.91342
3041.30148,0.91389
3039.37294,0.91366
3037.44441,0.91336
3035.51587,0.91331
3033.58733,0.91310
3031.65880,0.91235
3029.73026,0.91121
3027.80173,0.91020
3025.87319,0.90948
3023.94465,0.90852
3022.01612,0.90672
3020.08758,0.90345
3018.15904,0.89740
3016.23051,0.88844
3014.30197,0.88018
3012.37344,0.87727
3010.44490,0.87970
3008.51636,0.88340
3006.58783,0.88595
3004.65929,0.88762
3002.73076,0.88888
3000.80222,0.88988
2998.87368,0.89061
2996.94515,0.89051
2995.01661,0.88929
2993.08808,0.88715
2991.15954,0.88413
2989.23100,0.88075
2987.30247,0.87820
2985.37393,0.87731
2983.44539,0.87792
2981.51686,0.87888
2979.58832,0.87865
2977.65979,0.87663
2975.73125,0.87305
2973.80271,0.86767
2971.87418,0.86024
2969.94564,0.85148
2968.01711,0.84230
2966.08857,0.83342
2964.16003,0.82530
2962.23150,0.81775
2960.30296,0.81048
2958.37442,0.80391
2956.44589,0.79871
2954.51735,0.79543
2952.58882,0.79421
2950.66028,0.79517
2948.73174,0.79832
2946.80321,0.80242
2944.87467,0.80533
2942.94614,0.80543
2941.01760,0.80217
2939.08906,0.79588
2937.16053,0.78733
2935.23199,0.77714
2933.30346,0.76594
2931.37492,0.75427
2929.44638,0.74256
2927.51785,0.73172
2925.58931,0.72353
2923.66077,0.71969
2921.73224,0.72102
2919.80370,0.72723
2917.87517,0.73689
2915.94663,0.74811
2914.01809,0.75940
2912.08956,0.76987
2910.16102,0.77907
2908.23249,0.78707
2906.30395,0.79441
2904.37541,0.80138
2902.44688,0.80789
2900.51834,0.81411
2898.58980,0.82050
2896.66127,0.82697
2894.73273,0.83296
2892.80420,0.83839
2890.87566,0.84371
2888.94712,0.84900
2887.01859,0.85402
2885.09005,0.85852
2883.16152,0.86215
2881.23298,0.86441
2879.30444,0.86483
2877.37591,0.86337
2875.44737,0.86046
2873.51883,0.85687
2871.59030,0.85357
2869.66176,0.85134
2867.73323,0.84992
2865.80469,0.84808
2863.87615,0.84462
2861.94762,0.83899
2860.01908,0.83107
2858.09055,0.82155
2856.16201,0.81262
2854.23347,0.80707
2852.30494,0.80678
2850.37640,0.81157
2848.44787,0.81920
2846.51933,0.82755
2844.59079,0.83712
2842.66226,0.84946
2840.73372,0.86375
2838.80518,0.87724
2836.87665,0.88807
2834.94811,0.89624
2833.01958,0.90243
2831.09104,0.90711
2829.16250,0.91068
2827.23397,0.91350
2825.30543,0.91577
2823.37690,0.91751
2821.44836,0.91879
2819.51982,0.91976
2817.59129,0.92054
2815.66275,0.92122
2813.73421,0.92195
2811.80568,0.92277
2809.87714,0.92336
2807.94861,0.92357
2806.02007,0.92370
2804.09153,0.92398
2802.16300,0.92450
2800.23446,0.92529
2798.30593,0.92608
2796.37739,0.92653
2794.44885,0.92676
2792.52032,0.92712
2790.59178,0.92761
2788.66325,0.92788
2786.73471,0.92784
2784.80617,0.92782
2782.87764,0.92805
2780.94910,0.92843
2779.02056,0.92890
2777.09203,0.92953
2775.16349,0.93025
2773.23496,0.93081
2771.30642,0.93121
2769.37788,0.93169
2767.44935,0.93238
2765.52081,0.93319
2763.59228,0.93399
2761.66374,0.93478
2759.73520,0.93557
2757.80667,0.93630
2755.87813,0.93688
2753.94959,0.93730
2752.02106,0.93777
2750.09252,0.93837
2748.16399,0.93888
2746.23545,0.93909
2744.30691,0.93904
2742.37838,0.93898
2740.44984,0.93911
2738.52131,0.93937
2736.59277,0.93953
2734.66423,0.93953
2732.73570,0.93957
2730.80716,0.93980
2728.87863,0.94027
2726.95009,0.94080
2725.02155,0.94106
2723.09302,0.94101
2721.16448,0.94097
2719.23594,0.94112
2717.30741,0.94137
2715.37887,0.94163
2713.45034,0.94187
2711.52180,0.94216
2709.59326,0.94251
2707.66473,0.94290
2705.73619,0.94331
2703.80766,0.94365
2701.87912,0.94387
2699.95058,0.94405
2698.02205,0.94421
2696.09351,0.94433
2694.16497,0.94436
2692.23644,0.94427
2690.30790,0.94407
2688.37937,0.94383
2686.45083,0.94368
2684.52229,0.94372
2682.59376,0.94390
2680.66522,0.94410
2678.73669,0.94420
2676.80815,0.94422
2674.87961,0.94426
2672.95108,0.94441
2671.02254,0.94459
2669.09401,0.94470
2667.16547,0.94472
2665.23693,0.94465
2663.30840,0.94450
2661.37986,0.94427
2659.45132,0.94393
2657.52279,0.94350
2655.59425,0.94312
2653.66572,0.94290
2651.73718,0.94291
2649.80864,0.94318
2647.88011,0.94369
2645.95157,0.94437
2644.02304,0.94513
2642.09450,0.94589
2640.16596,0.94654
2638.23743,0.94707
2636.30889,0.94752
2634.38035,0.94787
2632.45182,0.94804
2630.52328,0.94803
2628.59475,0.94798
2626.66621,0.94793
2624.73767,0.94778
2622.80914,0.94756
2620.88060,0.94750
2618.95207,0.94777
2617.02353,0.94828
2615.09499,0.94885
2613.16646,0.94939
2611.23792,0.94976
2609.30939,0.94995
2607.38085,0.95013
2605.45231,0.95032
2603.52378,0.95036
2601.59524,0.95031
2599.66670,0.95032
2597.73817,0.95035
2595.80963,0.95040
2593.88110,0.95051
2591.95256,0.95056
2590.02402,0.95042
2588.09549,0.95019
2586.16695,0.94994
2584.23842,0.94960
2582.30988,0.94921
2580.38134,0.94901
2578.45281,0.94915
2576.52427,0.94954
2574.59573,0.94996
2572.66720,0.95029
2570.73866,0.95051
2568.81013,0.95062
2566.88159,0.95051
2564.95305,0.95022
2563.02452,0.94984
2561.09598,0.94943
2559.16745,0.94914
2557.23891,0.94918
2555.31037,0.94961
2553.38184,0.95021
2551.45330,0.95077
2549.52476,0.95119
2547.59623,0.95158
2545.66769,0.95203
2543.73916,0.95243
2541.81062,0.95261
2539.88208,0.95257
2537.95355,0.95245
2536.02501,0.95213
2534.09648,0.95144
2532.16794,0.95039
2530.23940,0.94907
2528.31087,0.94789
2526.38233,0.94744
2524.45380,0.94796
2522.52526,0.94916
2520.59672,0.95050
2518.66819,0.95161
2516.73965,0.95238
2514.81111,0.95287
2512.88258,0.95315
2510.95404,0.95333
2509.02551,0.95351
2507.09697,0.95378
2505.16843,0.95405
2503.23990,0.95414
2501.31136,0.95408
2499.38283,0.95408
2497.45429,0.95428
2495.52575,0.95449
2493.59722,0.95462
2491.66868,0.95470
2489.74014,0.95466
2487.81161,0.95436
2485.88307,0.95393
2483.95454,0.95354
2482.02600,0.95311
2480.09746,0.95255
2478.16893,0.95207
2476.24039,0.95178
2474.31186,0.95165
2472.38332,0.95161
2470.45478,0.95173
2468.52625,0.95207
2466.59771,0.95262
2464.66918,0.95322
2462.74064,0.95361
2460.81210,0.95376
2458.88357,0.95377
2456.95503,0.95364
2455.02649,0.95336
2453.09796,0.95296
2451.16942,0.95250
2449.24089,0.95219
2447.31235,0.95221
2445.38381,0.95248
2443.45528,0.95279
2441.52674,0.95323
2439.59821,0.95398
2437.66967,0.95485
2435.74113,0.95556
2433.81260,0.95594
2431.88406,0.95603
2429.95552,0.95598
2428.02699,0.95590
2426.09845,0.95586
2424.16992,0.95583
2422.24138,0.95580
2420.31284,0.95583
2418.38431,0.95597
2416.45577,0.95619
2414.52724,0.95642
2412.59870,0.95658
2410.67016,0.95654
2408.74163,0.95627
2406.81309,0.95584
2404.88456,0.95528
2402.95602,0.95449
2401.02748,0.95354
2399.09895,0.95272
2397.17041,0.95225
2395.24187,0.95220
2393.31334,0.95252
2391.38480,0.95313
2389.45627,0.95381
2387.52773,0.95434
2385.59919,0.95463
2383.67066,0.95477
2381.74212,0.95486
2379.81359,0.95491
2377.88505,0.95485
2375.95651,0.95463
2374.02798,0.95441
2372.09944,0.95429
2370.17090,0.95391
2368.24237,0.95309
2366.31383,0.95237
2364.38530,0.95209
2362.45676,0.95175
2360.52822,0.95125
2358.59969,0.95098
2356.67115,0.95101
2354.74262,0.95171
2352.81408,0.95280
2350.88554,0.95348
2348.95701,0.95364
2347.02847,0.95357
2345.09994,0.95367
2343.17140,0.95422
2341.24286,0.95478
2339.31433,0.95471
2337.38579,0.95423
2335.45725,0.95394
2333.52872,0.95405
2331.60018,0.95438
2329.67165,0.95464
2327.74311,0.95465
2325.81457,0.95469
2323.88604,0.95493
2321.95750,0.95535
2320.02897,0.95611
2318.10043,0.95717
2316.17189,0.95799
2314.24336,0.95841
2312.31482,0.95883
2310.38628,0.95937
2308.45775,0.95981
2306.52921,0.96013
2304.60068,0.96043
2302.67214,0.96071
2300.74360,0.96088
2298.81507,0.96096
2296.88653,0.96103
2294.95800,0.96113
2293.02946,0.96119
2291.10092,0.96120
2289.17239,0.96127
2287.24385,0.96144
2285.31532,0.96161
2283.38678,0.96173
2281.45824,0.96177
2279.52971,0.96174
2277.60117,0.96167
2275.67263,0.96167
2273.74410,0.96176
2271.81556,0.96194
2269.88703,0.96227
2267.95849,0.96271
2266.02995,0.96302
2264.10142,0.96315
2262.17288,0.96317
2260.24435,0.96317
2258.31581,0.96323
2256.38727,0.96340
2254.45874,0.96366
2252.53020,0.96390
2250.60166,0.96405
2248.67313,0.96405
2246.74459,0.96395
2244.81606,0.96391
2242.88752,0.96395
2240.95898,0.96394
2239.03045,0.96377
2237.10191,0.96343
2235.17338,0.96312
2233.24484,0.96300
2231.31630,0.96296
2229.38777,0.96292
2227.45923,0.96297
2225.53070,0.96318
2223.60216,0.96356
2221.67362,0.96398
2219.74509,0.96438
2217.81655,0.96490
2215.88801,0.96540
2213.95948,0.96562
2212.03094,0.96556
2210.10241,0.96542
2208.17387,0.96533
2206.24533,0.96529
2204.31680,0.96527
2202.38826,0.96516
2200.45973,0.96505
2198.53119,0.96506
2196.60265,0.96536
2194.67412,0.96586
2192.74558,0.96632
2190.81704,0.96679
2188.88851,0.96721
2186.95997,0.96730
2185.03144,0.96721
2183.10290,0.96737
2181.17436,0.96782
2179.24583,0.96815
2177.31729,0.96823
2175.38876,0.96823
2173.46022,0.96828
2171.53168,0.96839
2169.60315,0.96880
2167.67461,0.96946
2165.74607,0.96998
2163.81754,0.97030
2161.88900,0.97052
2159.96047,0.97060
2158.03193,0.97013
2156.10339,0.96905
2154.17486,0.96807
2152.24632,0.96777
2150.31779,0.96784
2148.38925,0.96767
2146.46071,0.96753
2144.53218,0.96779
2142.60364,0.96823
2140.67511,0.96852
2138.74657,0.96863
2136.81803,0.96868
2134.88950,0.96872
2132.96096,0.96866
2131.03242,0.96825
2129.10389,0.96768
2127.17535,0.96728
2125.24682,0.96704
2123.31828,0.96680
2121.38974,0.96654
2119.46121,0.96652
2117.53267,0.96683
2115.60414,0.96727
2113.67560,0.96766
2111.74706,0.96795
2109.81853,0.96817
2107.88999,0.96824
2105.96145,0.96820
2104.03292,0.96826
2102.10438,0.96847
2100.17585,0.96855
2098.24731,0.96846
2096.31877,0.96831
2094.39024,0.96803
2092.46170,0.96760
2090.53317,0.96692
2088.60463,0.96600
2086.67609,0.96504
2084.74756,0.96417
2082.81902,0.96346
2080.89049,0.96294
2078.96195,0.96262
2077.03341,0.96252
2075.10488,0.96290
2073.17634,0.96392
2071.24780,0.96526
2069.31927,0.96629
2067.39073,0.96685
2065.46220,0.96741
2063.53366,0.96810
2061.60512,0.96855
2059.67659,0.96872
2057.74805,0.96876
2055.81952,0.96856
2053.89098,0.96829
2051.96244,0.96839
2050.03391,0.96898
2048.10537,0.96970
2046.17683,0.97008
2044.24830,0.97028
2042.31976,0.97074
2040.39123,0.97150
2038.46269,0.97246
2036.53415,0.97315
2034.60562,0.97312
2032.67708,0.97297
2030.74855,0.97334
2028.82001,0.97366
2026.89147,0.97318
2024.96294,0.97270
2023.03440,0.97299
2021.10587,0.97350
2019.17733,0.97395
2017.24879,0.97431
2015.32026,0.97412
2013.39172,0.97346
2011.46318,0.97294
2009.53465,0.97284
2007.60611,0.97294
2005.67758,0.97315
2003.74904,0.97337
2001.82050,0.97343
1999.89197,0.97342
1997.96343,0.97343
1996.03490,0.97338
1994.10636,0.97339
1992.17782,0.97360
1990.24929,0.97380
1988.32075,0.97395
1986.39221,0.97409
1984.46368,0.97423
1982.53514,0.97451
1980.60661,0.97481
1978.67807,0.97522
1976.74953,0.97576
1974.82100,0.97623
1972.89246,0.97650
1970.96393,0.97651
1969.03539,0.97623
1967.10685,0.97561
1965.17832,0.97484
1963.24978,0.97396
1961.32125,0.97314
1959.39271,0.97254
1957.46417,0.97206
1955.53564,0.97163
1953.60710,0.97112
1951.67856,0.97053
1949.75003,0.97002
1947.82149,0.96987
1945.89296,0.97043
1943.96442,0.97150
1942.03588,0.97226
1940.10735,0.97227
1938.17881,0.97205
1936.25028,0.97187
1934.32174,0.97158
1932.39320,0.97080
1930.46467,0.96911
1928.53613,0.96650
1926.60759,0.96422
1924.67906,0.96398
1922.75052,0.96573
1920.82199,0.96763
1918.89345,0.96885
1916.96491,0.96954
1915.03638,0.96989
1913.10784,0.97012
1911.17931,0.97024
1909.25077,0.97028
1907.32223,0.97039
1905.39370,0.97059
1903.46516,0.97078
1901.53663,0.97096
1899.60809,0.97112
1897.67955,0.97129
1895.75102,0.97137
1893.82248,0.97129
1891.89394,0.97099
1889.96541,0.97063
1888.03687,0.97057
1886.10834,0.97064
1884.17980,0.97066
1882.25126,0.97067
1880.32273,0.97070
1878.39419,0.97068
1876.46566,0.97059
1874.53712,0.97057
1872.60858,0.97058
1870.68005,0.97055
1868.75151,0.97032
1866.82297,0.97013
1864.89444,0.97025
1862.96590,0.97049
1861.03737,0.97064
1859.10883,0.97050
1857.18029,0.97022
1855.25176,0.96992
1853.32322,0.96967
1851.39469,0.96934
1849.46615,0.96872
1847.53761,0.96762
1845.60908,0.96564
1843.68054,0.96343
1841.75200,0.96323
1839.82347,0.96478
1837.89493,0.96665
1835.96640,0.96806
1834.03786,0.96894
1832.10932,0.96958
1830.18079,0.97018
1828.25225,0.97044
1826.32372,0.97043
1824.39518,0.97033
1822.46664,0.97006
1820.53811,0.96973
1818.60957,0.96937
1816.68104,0.96911
1814.75250,0.96900
1812.82396,0.96899
1810.89543,0.96877
1808.96689,0.96808
1807.03835,0.96705
1805.10982,0.96579
1803.18128,0.96434
1801.25275,0.96260
1799.32421,0.96118
1797.39567,0.96063
1795.46714,0.96075
1793.53860,0.96118
1791.61007,0.96138
1789.68153,0.96100
1787.75299,0.96017
1785.82446,0.95881
1783.89592,0.95717
1781.96738,0.95654
1780.03885,0.95776
1778.11031,0.95963
1776.18178,0.96098
1774.25324,0.96198
1772.32470,0.96321
1770.39617,0.96404
1768.46763,0.96396
1766.53910,0.96343
1764.61056,0.96263
1762.68202,0.96129
1760.75349,0.95962
1758.82495,0.95910
1756.89642,0.95982
1754.96788,0.96056
1753.03934,0.96052
1751.11081,0.95959
1749.18227,0.95747
1747.25373,0.95458
1745.32520,0.95159
1743.39666,0.94857
1741.46813,0.94636
1739.53959,0.94582
1737.61105,0.94639
1735.68252,0.94765
1733.75398,0.95046
1731.82545,0.95309
1729.89691,0.95400
1727.96837,0.95411
1726.03984,0.95377
1724.11130,0.95330
1722.18276,0.95303
1720.25423,0.95295
1718.32569,0.95291
1716.39716,0.95205
1714.46862,0.95028
1712.54008,0.94882
1710.61155,0.94754
1708.68301,0.94627
1706.75448,0.94423
1704.82594,0.94091
1702.89740,0.93784
1700.96887,0.93531
1699.04033,0.93300
1697.11180,0.93190
1695.18326,0.93118
1693.25472,0.92978
1691.32619,0.92692
1689.39765,0.92088
1687.46911,0.91294
1685.54058,0.90074
1683.61204,0.87553
1681.68351,0.85856
1679.75497,0.85163
1677.82643,0.84270
1675.89790,0.81947
1673.96936,0.77764
1672.04083,0.73088
1670.11229,0.65699
1668.18375,0.56769
1666.25522,0.52205
1664.32668,0.50936
1662.39814,0.53853
1660.46961,0.60102
1658.54107,0.65870
1656.61254,0.70510
1654.68400,0.74845
1652.75546,0.80587
1650.82693,0.82722
1648.89839,0.81751
1646.96986,0.78355
1645.04132,0.76654
1643.11278,0.78480
1641.18425,0.81186
1639.25571,0.83466
1637.32718,0.84909
1635.39864,0.85735
1633.47010,0.85999
1631.54157,0.86167
1629.61303,0.86489
1627.68449,0.87096
1625.75596,0.87878
1623.82742,0.88734
1621.89889,0.89430
1619.97035,0.89583
1618.04181,0.89315
1616.11328,0.88451
1614.18474,0.86987
1612.25621,0.84439
1610.32767,0.79815
1608.39913,0.74534
1606.47060,0.72826
1604.54206,0.75634
1602.61352,0.80478
1600.68499,0.84708
1598.75645,0.87407
1596.82792,0.89127
1594.89938,0.90240
1592.97084,0.90679
1591.04231,0.90395
1589.11377,0.89109
1587.18524,0.85909
1585.25670,0.79621
1583.32816,0.71094
1581.39963,0.64376
1579.47109,0.62102
1577.54256,0.64318
1575.61402,0.70989
1573.68548,0.75928
1571.75695,0.78394
1569.82841,0.81202
1567.89987,0.83877
1565.97134,0.85303
1564.04280,0.86336
1562.11427,0.87098
1560.18573,0.87707
1558.25719,0.88798
1556.32866,0.89148
1554.40012,0.88950
1552.47159,0.88556
1550.54305,0.87913
1548.61451,0.87097
1546.68598,0.86366
1544.75744,0.85540
1542.82890,0.84281
1540.90037,0.82312
1538.97183,0.80548
1537.04330,0.80215
1535.11476,0.80048
1533.18622,0.79487
1531.25769,0.78678
1529.32915,0.77724
1527.40062,0.75835
1525.47208,0.72656
1523.54354,0.69149
1521.61501,0.64599
1519.68647,0.60826
1517.75793,0.58910
1515.82940,0.57765
1513.90086,0.57958
1511.97233,0.59200
1510.04379,0.60785
1508.11525,0.62382
1506.18672,0.63430
1504.25818,0.63283
1502.32965,0.62816
1500.40111,0.61928
1498.47257,0.60021
1496.54404,0.56204
1494.61550,0.52018
1492.68697,0.48368
1490.75843,0.43373
1488.82989,0.36648
1486.90136,0.33017
1484.97282,0.31775
1483.04428,0.31049
1481.11575,0.30805
1479.18721,0.31430
1477.25868,0.33096
1475.33014,0.35881
1473.40160,0.40487
1471.47307,0.45497
1469.54453,0.47911
1467.61600,0.49290
1465.68746,0.51091
1463.75892,0.53348
1461.83039,0.54844
1459.90185,0.55636
1457.97331,0.56550
1456.04478,0.57781
1454.11624,0.57431
1452.18771,0.55324
1450.25917,0.52705
1448.33063,0.52447
1446.40210,0.55763
1444.47356,0.59653
1442.54503,0.62514
1440.61649,0.64394
1438.68795,0.65222
1436.75942,0.63902
1434.83088,0.59761
1432.90235,0.55189
1430.97381,0.51038
1429.04527,0.48615
1427.11674,0.48669
1425.18820,0.50418
1423.25966,0.53319
1421.33113,0.56259
1419.40259,0.59473
1417.47406,0.62975
1415.54552,0.65070
1413.61698,0.66235
1411.68845,0.66182
1409.75991,0.63599
1407.83138,0.59186
1405.90284,0.55912
1403.97430,0.56400
1402.04577,0.59211
1400.11723,0.62222
1398.18869,0.65075
1396.26016,0.67391
1394.33162,0.69263
1392.40309,0.70585
1390.47455,0.71420
1388.54601,0.72051
1386.61748,0.72345
1384.68894,0.72082
1382.76041,0.71452
1380.83187,0.70605
1378.90333,0.69686
1376.97480,0.68755
1375.04626,0.67265
1373.11773,0.64331
1371.18919,0.60288
1369.26065,0.56499
1367.33212,0.55457
1365.40358,0.57903
1363.47504,0.62280
1361.54651,0.66900
1359.61797,0.70096
1357.68944,0.72274
1355.76090,0.74077
1353.83236,0.75521
1351.90383,0.76587
1349.97529,0.77410
1348.04676,0.78080
1346.11822,0.78638
1344.18968,0.79118
1342.26115,0.79570
1340.33261,0.80100
1338.40407,0.80723
1336.47554,0.81225
1334.54700,0.81553
1332.61847,0.81790
1330.68993,0.82003
1328.76139,0.82203
1326.83286,0.82117
1324.90432,0.81081
1322.97579,0.78484
1321.04725,0.74936
1319.11871,0.72540
1317.19018,0.72754
1315.26164,0.74238
1313.33311,0.75068
1311.40457,0.75166
1309.47603,0.75775
1307.54750,0.77222
1305.61896,0.78603
1303.69042,0.79221
1301.76189,0.79026
1299.83335,0.78130
1297.90482,0.76630
1295.97628,0.74261
1294.04774,0.69900
1292.11921,0.62349
1290.19067,0.53327
1288.26214,0.47728
1286.33360,0.47584
1284.40506,0.49427
1282.47653,0.50121
1280.54799,0.49849
1278.61945,0.50008
1276.69092,0.51347
1274.76238,0.53777
1272.83385,0.56801
1270.90531,0.59771
1268.97677,0.62060
1267.04824,0.63331
1265.11970,0.63477
1263.19117,0.62700
1261.26263,0.61790
1259.33409,0.61741
1257.40556,0.62834
1255.47702,0.64516
1253.54849,0.66109
1251.61995,0.67210
1249.69141,0.67742
1247.76288,0.67677
1245.83434,0.66454
1243.90580,0.62681
1241.97727,0.55501
1240.04873,0.47069
1238.12020,0.42120
1236.19166,0.43503
1234.26312,0.49294
1232.33459,0.55659
1230.40605,0.60667
1228.47752,0.64420
1226.54898,0.67454
1224.62044,0.70056
1222.69191,0.72313
1220.76337,0.74222
1218.83483,0.75753
1216.90630,0.76870
1214.97776,0.77574
1213.04923,0.77937
1211.12069,0.78134
1209.19215,0.78414
1207.26362,0.78907
1205.33508,0.79499
1203.40655,0.80029
1201.47801,0.80457
1199.54947,0.80718
1197.62094,0.80592
1195.69240,0.79773
1193.76387,0.78044
1191.83533,0.75714
1189.90679,0.73774
1187.97826,0.72921
1186.04972,0.72897
1184.12118,0.73197
1182.19265,0.73657
1180.26411,0.74225
1178.33558,0.74728
1176.40704,0.74958
1174.47850,0.74719
1172.54997,0.73673
1170.62143,0.71468
1168.69290,0.67899
1166.76436,0.62737
1164.83582,0.56410
1162.90729,0.50886
1160.97875,0.48293
1159.05021,0.49152
1157.12168,0.52821
1155.19314,0.58199
1153.26461,0.63659
1151.33607,0.67722
1149.40753,0.69877
1147.47900,0.70572
1145.55046,0.70745
1143.62193,0.70733
1141.69339,0.69068
1139.76485,0.64241
1137.83632,0.58684
1135.90778,0.57184
1133.97924,0.60336
1132.05071,0.64502
1130.12217,0.67481
1128.19364,0.69665
1126.26510,0.71724
1124.33656,0.73733
1122.40803,0.75537
1120.47949,0.77071
1118.55096,0.78364
1116.62242,0.79471
1114.69388,0.80465
1112.76535,0.81402
1110.83681,0.82238
1108.90828,0.82821
1106.97974,0.83152
1105.05120,0.83469
1103.12267,0.83874
1101.19413,0.84101
1099.26559,0.83671
1097.33706,0.81875
1095.40852,0.78876
1093.47999,0.77104
1091.55145,0.78465
1089.62291,0.81234
1087.69438,0.82656
1085.76584,0.82019
1083.83731,0.80146
1081.90877,0.78422
1079.98023,0.77872
1078.05170,0.78154
1076.12316,0.77734
1074.19462,0.74933
1072.26609,0.69111
1070.33755,0.61214
1068.40902,0.53171
1066.48048,0.47426
1064.55194,0.46251
1062.62341,0.49764
1060.69487,0.55673
1058.76634,0.61590
1056.83780,0.66283
1054.90926,0.69189
1052.98073,0.70327
1051.05219,0.70759
1049.12366,0.71395
1047.19512,0.71516
1045.26658,0.70449
1043.33805,0.69274
1041.40951,0.69183
1039.48097,0.69778
1037.55244,0.69901
1035.62390,0.69451
1033.69537,0.69577
1031.76683,0.70898
1029.83829,0.72564
1027.90976,0.73295
1025.98122,0.72232
1024.05269,0.68725
1022.12415,0.62415
1020.19561,0.54316
1018.26708,0.47401
1016.33854,0.44645
1014.41000,0.46462
1012.48147,0.50885
1010.55293,0.55898
1008.62440,0.60685
1006.69586,0.64910
1004.76732,0.68157
1002.83879,0.70148
1000.91025,0.70493
998.98172,0.68600
997.05318,0.65374
995.12464,0.62659
993.19611,0.59495
991.26757,0.54854
989.33904,0.52294
987.41050,0.54795
985.48196,0.60153
983.55343,0.64979
981.62489,0.68081
979.69635,0.69744
977.76782,0.70501
975.83928,0.70589
973.91075,0.69951
971.98221,0.68526
970.05367,0.66243
968.12514,0.62977
966.19660,0.58941
964.26807,0.55159
962.33953,0.53362
960.41099,0.54722
958.48246,0.58622
956.55392,0.63372
954.62538,0.67722
952.69685,0.71237
950.76831,0.73925
948.83978,0.75973
946.91124,0.77592
944.98270,0.78910
943.05417,0.79987
941.12563,0.80842
939.19710,0.81496
937.26856,0.81956
935.34002,0.82190
933.41149,0.82219
931.48295,0.82271
929.55442,0.82611
927.62588,0.83241
925.69734,0.83922
923.76881,0.84362
921.84027,0.84156
919.91173,0.82413
917.98320,0.77225
916.05466,0.66584
914.12613,0.52784
912.19759,0.43601
910.26905,0.43969
908.34052,0.50223
906.41198,0.55349
904.48345,0.55467
902.55491,0.52429
900.62637,0.51667
898.69784,0.55336
896.76930,0.60322
894.84076,0.63545
892.91223,0.65284
890.98369,0.67395
889.05516,0.70434
887.12662,0.73416
885.19808,0.75557
883.26955,0.76901
881.34101,0.77939
879.41248,0.79127
877.48394,0.80388
875.55540,0.81400
873.62687,0.82134
871.69833,0.82742
869.76980,0.83283
867.84126,0.83751
865.91272,0.84153
863.98419,0.84495
862.05565,0.84754
860.12711,0.84829
858.19858,0.84479
856.27004,0.83715
854.34151,0.83273
852.41297,0.83728
850.48443,0.84564
848.55590,0.85200
846.62736,0.85714
844.69883,0.86218
842.77029,0.86645
840.84175,0.86956
838.91322,0.87166
836.98468,0.87259
835.05614,0.87221
833.12761,0.87095
831.19907,0.86977
829.27054,0.86948
827.34200,0.87016
825.41346,0.87156
823.48493,0.87330
821.55639,0.87519
819.62786,0.87699
817.69932,0.87836
815.77078,0.87958
813.84225,0.88089
811.91371,0.88197
809.98517,0.88180
808.05664,0.87834
806.12810,0.86677
804.19957,0.83233
802.27103,0.75081
800.34249,0.63764
798.41396,0.57695
796.48542,0.62010
794.55689,0.71239
792.62835,0.78144
790.69981,0.79861
788.77128,0.74390
786.84274,0.62907
784.91421,0.54798
782.98567,0.57696
781.05713,0.66998
779.12860,0.74977
777.20006,0.79757
775.27152,0.82309
773.34299,0.83249
771.41445,0.82250
769.48592,0.77486
767.55738,0.67114
765.62884,0.54679
763.70031,0.48608
761.77177,0.51668
759.84324,0.58209
757.91470,0.62043
755.98616,0.59801
754.05763,0.52866
752.12909,0.48807
750.20055,0.52303
748.27202,0.59317
746.34348,0.64816
744.41495,0.68021
742.48641,0.69946
740.55787,0.71285
738.62934,0.72256
736.70080,0.72956
734.77227,0.73384
732.84373,0.73431
730.91519,0.73542
728.98666,0.74385
727.05812,0.75605
725.12959,0.76413
723.20105,0.76730
721.27251,0.76834
719.34398,0.76819
717.41544,0.76393
715.48690,0.74900
713.55837,0.71834
711.62983,0.68029
709.70130,0.65436
707.77276,0.64778
705.84422,0.65192
703.91569,0.66185
701.98715,0.67484
700.05862,0.67282
698.13008,0.62986
696.20154,0.55123
694.27301,0.48750
692.34447,0.47658
690.41593,0.50450
688.48740,0.54049
686.55886,0.56913
684.63033,0.58937
682.70179,0.60440
680.77325,0.61607
678.84472,0.62533
676.91618,0.63191
674.98765,0.63582
673.05911,0.63970
671.13057,0.64633
669.20204,0.65475
667.27350,0.65367
665.34497,0.64549
663.41643,0.64590
661.48789,0.65917
659.55936,0.67783
657.63082,0.69365
655.70228,0.70611
653.77375,0.71084
651.84521,0.68640
649.91668,0.62724
647.98814,0.58864
646.05960,0.61200
644.13107,0.66113
642.20253,0.69740
640.27400,0.72036
638.34546,0.73728
636.41692,0.75092
634.48839,0.76125
632.55985,0.76528
630.63131,0.76334
628.70278,0.76333
626.77424,0.77150
624.84571,0.78459
622.91717,0.79682
620.98863,0.80667
619.06010,0.81428
617.13156,0.82012
615.20303,0.82547
613.27449,0.83035
611.34595,0.83346
609.41742,0.83367
607.48888,0.82972
605.56035,0.82004
603.63181,0.80262
601.70327,0.77383
599.77474,0.73004
597.84620,0.67458
595.91766,0.61848
593.98913,0.57477
592.06059,0.55520
590.13206,0.56305
588.20352,0.58816
586.27498,0.61479
584.34645,0.62731
582.41791,0.62378
580.48938,0.62103
578.56084,0.63170
576.63230,0.65203
574.70377,0.67281
572.77523,0.68653
570.84669,0.68836
568.91816,0.67208
566.98962,0.63721
565.06109,0.59593
563.13255,0.55676
561.20401,0.52171
559.27548,0.50117
557.34694,0.50883
555.41841,0.54314
553.48987,0.58813
551.56133,0.63061
549.63280,0.66617
547.70426,0.69340
545.77573,0.71212
543.84719,0.72293
541.91865,0.72639
539.99012,0.72459
538.06158,0.72420
536.13304,0.73277
534.20451,0.74932
532.27597,0.76589
530.34744,0.77773
528.41890,0.78560
526.49036,0.79214
524.56183,0.79784
522.63329,0.80192
520.70476,0.80541
518.77622,0.80952
516.84768,0.81409
514.91915,0.81818
512.99061,0.82175
511.06207,0.82493
509.13354,0.82672
507.20500,0.82385
505.27647,0.80931
503.34793,0.76702
501.41939,0.69521
499.49086,0.64592
497.56232,0.65483
495.63379,0.69903
493.70525,0.74252
491.77671,0.77135
489.84818,0.78815
487.91964,0.79792
485.99110,0.80419
484.06257,0.80830
482.13403,0.81059
480.20550,0.81037
478.27696,0.80511
476.34842,0.79266
474.41989,0.77623
472.49135,0.76418
470.56282,0.75958
468.63428,0.74593
466.70574,0.70589
464.77721,0.64616
462.84867,0.59910
460.92014,0.59634
458.99160,0.64175
457.06306,0.70737
455.13453,0.74891
453.20599,0.76760
451.27745,0.78031
449.34892,0.79094
447.42038,0.80021
445.49185,0.80753
443.56331,0.81342
441.63477,0.81890
439.70624,0.82288
437.77770,0.82578
435.84917,0.82794
433.92063,0.82937
431.99209,0.83128
430.06356,0.83318
428.13502,0.83267
426.20648,0.82967
424.27795,0.82510
422.34941,0.81940
420.42088,0.80914
418.49234,0.78157
416.56380,0.75991
414.63527,0.76150
412.70673,0.77757
410.77820,0.79938
408.84966,0.81694
406.92112,0.82765
404.99259,0.83476
403.06405,0.84069
401.13552,0.84585
399.20698,0.85068
