3997.85540,0.89497
3995.92686,0.89511
3993.99833,0.89513
3992.06979,0.89504
3990.14125,0.89489
3988.21272,0.89471
3986.28418,0.89459
3984.35565,0.89455
3982.42711,0.89457
3980.49857,0.89461
3978.57004,0.89467
3976.64150,0.89476
3974.71297,0.89486
3972.78443,0.89497
3970.85589,0.89510
3968.92736,0.89520
3966.99882,0.89529
3965.07029,0.89538
3963.14175,0.89542
3961.21321,0.89543
3959.28468,0.89547
3957.35614,0.89550
3955.42760,0.89555
3953.49907,0.89566
3951.57053,0.89568
3949.64200,0.89545
3947.71346,0.89523
3945.78492,0.89533
3943.85639,0.89545
3941.92785,0.89545
3939.99932,0.89567
3938.07078,0.89596
3936.14224,0.89612
3934.21371,0.89608
3932.28517,0.89579
3930.35663,0.89567
3928.42810,0.89601
3926.49956,0.89631
3924.57103,0.89618
3922.64249,0.89599
3920.71395,0.89600
3918.78542,0.89586
3916.85688,0.89561
3914.92835,0.89572
3912.99981,0.89618
3911.07127,0.89662
3909.14274,0.89687
3907.21420,0.89687
3905.28566,0.89629
3903.35713,0.89529
3901.42859,0.89480
3899.50006,0.89489
3897.57152,0.89533
3895.64298,0.89596
3893.71445,0.89618
3891.78591,0.89566
3889.85738,0.89545
3887.92884,0.89578
3886.00030,0.89553
3884.07177,0.89504
3882.14323,0.89511
3880.21470,0.89510
3878.28616,0.89545
3876.35762,0.89618
3874.42909,0.89635
3872.50055,0.89583
3870.57201,0.89506
3868.64348,0.89487
3866.71494,0.89549
3864.78641,0.89565
3862.85787,0.89537
3860.92933,0.89581
3859.00080,0.89659
3857.07226,0.89698
3855.14373,0.89634
3853.21519,0.89435
3851.28665,0.89424
3849.35812,0.89570
3847.42958,0.89683
3845.50104,0.89721
3843.57251,0.89685
3841.64397,0.89620
3839.71544,0.89555
3837.78690,0.89492
3835.85836,0.89492
3833.92983,0.89534
3832.00129,0.89568
3830.07276,0.89608
3828.14422,0.89648
3826.21568,0.89657
3824.28715,0.89662
3822.35861,0.89635
3820.43008,0.89567
3818.50154,0.89586
3816.57300,0.89610
3814.64447,0.89618
3812.71593,0.89689
3810.78739,0.89763
3808.85886,0.89771
3806.93032,0.89709
3805.00179,0.89687
3803.07325,0.89698
3801.14471,0.89643
3799.21618,0.89626
3797.28764,0.89654
3795.35911,0.89668
3793.43057,0.89712
3791.50203,0.89776
3789.57350,0.89817
3787.64496,0.89820
3785.71642,0.89783
3783.78789,0.89748
3781.85935,0.89757
3779.93082,0.89752
3778.00228,0.89727
3776.07374,0.89741
3774.14521,0.89777
3772.21667,0.89781
3770.28814,0.89720
3768.35960,0.89662
3766.43106,0.89664
3764.50253,0.89692
3762.57399,0.89731
3760.64546,0.89740
3758.71692,0.89708
3756.78838,0.89714
3754.85985,0.89753
3752.93131,0.89727
3751.00277,0.89572
3749.07424,0.89496
3747.14570,0.89581
3745.21717,0.89615
3743.28863,0.89574
3741.36009,0.89616
3739.43156,0.89682
3737.50302,0.89651
3735.57449,0.89487
3733.64595,0.89373
3731.71741,0.89443
3729.78888,0.89564
3727.86034,0.89629
3725.93180,0.89630
3724.00327,0.89637
3722.07473,0.89674
3720.14620,0.89710
3718.21766,0.89757
3716.28912,0.89816
3714.36059,0.89847
3712.43205,0.89761
3710.50352,0.89591
3708.57498,0.89578
3706.64644,0.89665
3704.71791,0.89730
3702.78937,0.89735
3700.86084,0.89719
3698.93230,0.89738
3697.00376,0.89769
3695.07523,0.89797
3693.14669,0.89814
3691.21815,0.89770
3689.28962,0.89662
3687.36108,0.89672
3685.43255,0.89785
3683.50401,0.89881
3681.57547,0.89926
3679.64694,0.89926
3677.71840,0.89886
3675.78987,0.89777
3673.86133,0.89723
3671.93279,0.89764
3670.00426,0.89771
3668.07572,0.89812
3666.14718,0.89916
3664.21865,0.89988
3662.29011,0.90013
3660.36158,0.90018
3658.43304,0.89999
3656.50450,0.89929
3654.57597,0.89894
3652.64743,0.89920
3650.71890,0.89856
3648.79036,0.89655
3646.86182,0.89647
3644.93329,0.89779
3643.00475,0.89877
3641.07622,0.89913
3639.14768,0.89917
3637.21914,0.89913
3635.29061,0.89898
3633.36207,0.89894
3631.43353,0.89895
3629.50500,0.89805
3627.57646,0.89691
3625.64793,0.89748
3623.71939,0.89845
3621.79085,0.89884
3619.86232,0.89846
3617.93378,0.89821
3616.00525,0.89871
3614.07671,0.89907
3612.14817,0.89898
3610.21964,0.89874
3608.29110,0.89840
3606.36256,0.89851
3604.43403,0.89914
3602.50549,0.89952
3600.57696,0.89936
3598.64842,0.89917
3596.71988,0.89916
3594.79135,0.89907
3592.86281,0.89924
3590.93428,0.89973
3589.00574,0.89978
3587.07720,0.89921
3585.14867,0.89936
3583.22013,0.90015
3581.29160,0.90068
3579.36306,0.90080
3577.43452,0.90075
3575.50599,0.90067
3573.57745,0.90063
3571.64891,0.90069
3569.72038,0.90065
3567.79184,0.89997
3565.86331,0.89923
3563.93477,0.89953
3562.00623,0.90012
3560.07770,0.90044
3558.14916,0.90061
3556.22063,0.90076
3554.29209,0.90081
3552.36355,0.90068
3550.43502,0.90060
3548.50648,0.90060
3546.57794,0.90044
3544.64941,0.90030
3542.72087,0.90049
3540.79234,0.90076
3538.86380,0.90082
3536.93526,0.90068
3535.00673,0.90061
3533.07819,0.90074
3531.14966,0.90088
3529.22112,0.90078
3527.29258,0.90059
3525.36405,0.90052
3523.43551,0.90051
3521.50697,0.90054
3519.57844,0.90060
3517.64990,0.90066
3515.72137,0.90079
3513.79283,0.90094
3511.86429,0.90096
3509.93576,0.90079
3508.00722,0.90070
3506.07869,0.90081
3504.15015,0.90081
3502.22161,0.90068
3500.29308,0.90071
3498.36454,0.90079
3496.43601,0.90071
3494.50747,0.90066
3492.57893,0.90080
3490.65040,0.90094
3488.72186,0.90094
3486.79332,0.90096
3484.86479,0.90107
3482.93625,0.90105
3481.00772,0.90092
3479.07918,0.90095
3477.15064,0.90109
3475.22211,0.90112
3473.29357,0.90109
3471.36504,0.90109
3469.43650,0.90105
3467.50796,0.90101
3465.57943,0.90109
3463.65089,0.90126
3461.72235,0.90132
3459.79382,0.90128
3457.86528,0.90124
3455.93675,0.90126
3454.00821,0.90137
3452.07967,0.90149
3450.15114,0.90148
3448.22260,0.90135
3446.29407,0.90124
3444.36553,0.90129
3442.43699,0.90140
3440.50846,0.90154
3438.57992,0.90168
3436.65139,0.90176
3434.72285,0.90180
3432.79431,0.90180
3430.86578,0.90173
3428.93724,0.90169
3427.00870,0.90174
3425.08017,0.90187
3423.15163,0.90192
3421.22310,0.90182
3419.29456,0.90174
3417.36602,0.90183
3415.43749,0.90197
3413.50895,0.90200
3411.58042,0.90200
3409.65188,0.90203
3407.72334,0.90203
3405.79481,0.90202
3403.86627,0.90201
3401.93773,0.90200
3400.00920,0.90199
3398.08066,0.90198
3396.15213,0.90197
3394.22359,0.90194
3392.29505,0.90184
3390.36652,0.90182
3388.43798,0.90201
3386.50945,0.90221
3384.58091,0.90229
3382.65237,0.90233
3380.72384,0.90236
3378.79530,0.90237
3376.86677,0.90238
3374.93823,0.90242
3373.00969,0.90246
3371.08116,0.90241
3369.15262,0.90232
3367.22408,0.90229
3365.29555,0.90235
3363.36701,0.90243
3361.43848,0.90248
3359.50994,0.90249
3357.58140,0.90250
3355.65287,0.90250
3353.72433,0.90248
3351.79580,0.90243
3349.86726,0.90242
3347.93872,0.90251
3346.01019,0.90260
3344.08165,0.90257
3342.15311,0.90250
3340.22458,0.90251
3338.29604,0.90261
3336.36751,0.90268
3334.43897,0.90269
3332.51043,0.90264
3330.58190,0.90261
3328.65336,0.90265
3326.72483,0.90266
3324.79629,0.90259
3322.86775,0.90254
3320.93922,0.90262
3319.01068,0.90278
3317.08215,0.90290
3315.15361,0.90293
3313.22507,0.90295
3311.29654,0.90302
3309.36800,0.90308
3307.43946,0.90300
3305.51093,0.90283
3303.58239,0.90275
3301.65386,0.90283
3299.72532,0.90299
3297.79678,0.90309
3295.86825,0.90312
3293.93971,0.90313
3292.01118,0.90306
3290.08264,0.90301
3288.15410,0.90303
3286.22557,0.90308
3284.29703,0.90313
3282.36849,0.90316
3280.43996,0.90318
3278.51142,0.90318
3276.58289,0.90320
3274.65435,0.90327
3272.72581,0.90334
3270.79728,0.90340
3268.86874,0.90348
3266.94021,0.90351
3265.01167,0.90342
3263.08313,0.90327
3261.15460,0.90322
3259.22606,0.90333
3257.29753,0.90348
3255.36899,0.90352
3253.44045,0.90350
3251.51192,0.90354
3249.58338,0.90365
3247.65484,0.90373
3245.72631,0.90372
3243.79777,0.90371
3241.86924,0.90377
3239.94070,0.90377
3238.01216,0.90373
3236.08363,0.90375
3234.15509,0.90377
3232.22656,0.90377
3230.29802,0.90378
3228.36948,0.90377
3226.44095,0.90374
3224.51241,0.90376
3222.58387,0.90384
3220.65534,0.90390
3218.72680,0.90391
3216.79827,0.90396
3214.86973,0.90407
3212.94119,0.90411
3211.01266,0.90400
3209.08412,0.90389
3207.15559,0.90392
3205.22705,0.90404
3203.29851,0.90409
3201.36998,0.90406
3199.44144,0.90399
3197.51290,0.90388
3195.58437,0.90380
3193.65583,0.90376
3191.72730,0.90369
3189.79876,0.90365
3187.87022,0.90368
3185.94169,0.90366
3184.01315,0.90354
3182.08462,0.90345
3180.15608,0.90342
3178.22754,0.90337
3176.29901,0.90321
3174.37047,0.90290
3172.44194,0.90257
3170.51340,0.90241
3168.58486,0.90238
3166.65633,0.90230
3164.72779,0.90215
3162.79925,0.90200
3160.87072,0.90196
3158.94218,0.90216
3157.01365,0.90250
3155.08511,0.90277
3153.15657,0.90276
3151.22804,0.90239
3149.29950,0.90180
3147.37097,0.90124
3145.44243,0.90099
3143.51389,0.90118
3141.58536,0.90166
3139.65682,0.90222
3137.72828,0.90271
3135.79975,0.90299
3133.87121,0.90313
3131.94268,0.90325
3130.01414,0.90335
3128.08560,0.90335
3126.15707,0.90322
3124.22853,0.90308
3122.30000,0.90308
3120.37146,0.90316
3118.44292,0.90313
3116.51439,0.90291
3114.58585,0.90256
3112.65732,0.90229
3110.72878,0.90221
3108.80024,0.90210
3106.87171,0.90174
3104.94317,0.90120
3103.01463,0.90068
3101.08610,0.90012
3099.15756,0.89945
3097.22903,0.89874
3095.30049,0.89812
3093.37195,0.89761
3091.44342,0.89705
3089.51488,0.89627
3087.58635,0.89532
3085.65781,0.89433
3083.72927,0.89339
3081.80074,0.89255
3079.87220,0.89189
3077.94366,0.89154
3076.01513,0.89146
3074.08659,0.89150
3072.15806,0.89140
3070.22952,0.89058
3068.30098,0.88826
3066.37245,0.88403
3064.44391,0.87837
3062.51538,0.87268
3060.58684,0.86832
3058.65830,0.86586
3056.72977,0.86547
3054.80123,0.86713
3052.87270,0.87035
3050.94416,0.87427
3049.01562,0.87808
3047.08709,0.88134
3045.15855,0.88393
3043.23001,0.88602
3041.30148,0.88783
3039.37294,0.88943
3037.44441,0.89079
3035.51587,0.89174
3033.58733,0.89211
3031.65880,0.89183
3029.73026,0.89095
3027.80173,0.88971
3025.87319,0.88855
3023.94465,0.88805
3022.01612,0.88842
3020.08758,0.88930
3018.15904,0.89018
3016.23051,0.89074
3014.30197,0.89079
3012.37344,0.89020
3010.44490,0.88908
3008.51636,0.88787
3006.58783,0.88731
3004.65929,0.88780
3002.73076,0.88901
3000.80222,0.89029
2998.87368,0.89132
2996.94515,0.89192
2995.01661,0.89213
2993.08808,0.89206
2991.15954,0.89159
2989.23100,0.89098
2987.30247,0.89080
2985.37393,0.89101
2983.44539,0.89118
2981.51686,0.89096
2979.58832,0.89004
2977.65979,0.88840
2975.73125,0.88622
2973.80271,0.88338
2971.87418,0.87973
2969.94564,0.87560
2968.01711,0.87135
2966.08857,0.86714
2964.16003,0.86297
2962.23150,0.85883
2960.30296,0.85504
2958.37442,0.85222
2956.44589,0.85088
2954.51735,0.85116
2952.58882,0.85273
2950.66028,0.85499
2948.73174,0.85748
2946.80321,0.85964
2944.87467,0.86079
2942.94614,0.86066
2941.01760,0.85932
2939.08906,0.85698
2937.16053,0.85381
2935.23199,0.85001
2933.30346,0.84607
2931.37492,0.84284
2929.44638,0.84094
2927.51785,0.84015
2925.58931,0.83997
2923.66077,0.84029
2921.73224,0.84119
2919.80370,0.84273
2917.87517,0.84482
2915.94663,0.84710
2914.01809,0.84915
2912.08956,0.85085
2910.16102,0.85236
2908.23249,0.85390
2906.30395,0.85567
2904.37541,0.85769
2902.44688,0.85980
2900.51834,0.86189
2898.58980,0.86397
2896.66127,0.86606
2894.73273,0.86814
2892.80420,0.87013
2890.87566,0.87198
2888.94712,0.87369
2887.01859,0.87515
2885.09005,0.87624
2883.16152,0.87697
2881.23298,0.87726
2879.30444,0.87690
2877.37591,0.87584
2875.44737,0.87439
2873.51883,0.87266
2871.59030,0.87074
2869.66176,0.86920
2867.73323,0.86845
2865.80469,0.86811
2863.87615,0.86775
2861.94762,0.86728
2860.01908,0.86661
2858.09055,0.86567
2856.16201,0.86475
2854.23347,0.86438
2852.30494,0.86491
2850.37640,0.86632
2848.44787,0.86825
2846.51933,0.87016
2844.59079,0.87164
2842.66226,0.87263
2840.73372,0.87330
2838.80518,0.87391
2836.87665,0.87470
2834.94811,0.87598
2833.01958,0.87788
2831.09104,0.88022
2829.16250,0.88262
2827.23397,0.88474
2825.30543,0.88651
2823.37690,0.88795
2821.44836,0.88909
2819.51982,0.89005
2817.59129,0.89092
2815.66275,0.89170
2813.73421,0.89239
2811.80568,0.89301
2809.87714,0.89350
2807.94861,0.89383
2806.02007,0.89411
2804.09153,0.89445
2802.16300,0.89490
2800.23446,0.89538
2798.30593,0.89579
2796.37739,0.89611
2794.44885,0.89644
2792.52032,0.89682
2790.59178,0.89717
2788.66325,0.89744
2786.73471,0.89765
2784.80617,0.89792
2782.87764,0.89828
2780.94910,0.89865
2779.02056,0.89898
2777.09203,0.89927
2775.16349,0.89960
2773.23496,0.89987
2771.30642,0.89996
2769.37788,0.90001
2767.44935,0.90017
2765.52081,0.90037
2763.59228,0.90050
2761.66374,0.90060
2759.73520,0.90073
2757.80667,0.90087
2755.87813,0.90093
2753.94959,0.90093
2752.02106,0.90101
2750.09252,0.90116
2748.16399,0.90125
2746.23545,0.90126
2744.30691,0.90124
2742.37838,0.90127
2740.44984,0.90137
2738.52131,0.90148
2736.59277,0.90155
2734.66423,0.90157
2732.73570,0.90159
2730.80716,0.90164
2728.87863,0.90171
2726.95009,0.90180
2725.02155,0.90190
2723.09302,0.90197
2721.16448,0.90204
2719.23594,0.90215
2717.30741,0.90228
2715.37887,0.90238
2713.45034,0.90245
2711.52180,0.90257
2709.59326,0.90272
2707.66473,0.90282
2705.73619,0.90281
2703.80766,0.90280
2701.87912,0.90284
2699.95058,0.90291
2698.02205,0.90293
2696.09351,0.90283
2694.16497,0.90261
2692.23644,0.90233
2690.30790,0.90197
2688.37937,0.90156
2686.45083,0.90116
2684.52229,0.90088
2682.59376,0.90081
2680.66522,0.90099
2678.73669,0.90127
2676.80815,0.90152
2674.87961,0.90169
2672.95108,0.90178
2671.02254,0.90186
2669.09401,0.90201
2667.16547,0.90220
2665.23693,0.90237
2663.30840,0.90252
2661.37986,0.90266
2659.45132,0.90282
2657.52279,0.90300
2655.59425,0.90319
2653.66572,0.90338
2651.73718,0.90355
2649.80864,0.90370
2647.88011,0.90385
2645.95157,0.90395
2644.02304,0.90398
2642.09450,0.90402
2640.16596,0.90409
2638.23743,0.90420
2636.30889,0.90435
2634.38035,0.90451
2632.45182,0.90465
2630.52328,0.90480
2628.59475,0.90496
2626.66621,0.90504
2624.73767,0.90506
2622.80914,0.90512
2620.88060,0.90522
2618.95207,0.90527
2617.02353,0.90525
2615.09499,0.90519
2613.16646,0.90514
2611.23792,0.90509
2609.30939,0.90513
2607.38085,0.90539
2605.45231,0.90577
2603.52378,0.90613
2601.59524,0.90644
2599.66670,0.90669
2597.73817,0.90680
2595.80963,0.90678
2593.88110,0.90675
2591.95256,0.90670
2590.02402,0.90657
2588.09549,0.90631
2586.16695,0.90594
2584.23842,0.90555
2582.30988,0.90529
2580.38134,0.90522
2578.45281,0.90531
2576.52427,0.90540
2574.59573,0.90538
2572.66720,0.90543
2570.73866,0.90566
2568.81013,0.90589
2566.88159,0.90610
2564.95305,0.90633
2563.02452,0.90656
2561.09598,0.90680
2559.16745,0.90706
2557.23891,0.90732
2555.31037,0.90762
2553.38184,0.90786
2551.45330,0.90794
2549.52476,0.90798
2547.59623,0.90808
2545.66769,0.90821
2543.73916,0.90832
2541.81062,0.90841
2539.88208,0.90846
2537.95355,0.90849
2536.02501,0.90852
2534.09648,0.90860
2532.16794,0.90871
2530.23940,0.90877
2528.31087,0.90882
2526.38233,0.90893
2524.45380,0.90910
2522.52526,0.90919
2520.59672,0.90916
2518.66819,0.90908
2516.73965,0.90901
2514.81111,0.90893
2512.88258,0.90891
2510.95404,0.90885
2509.02551,0.90873
2507.09697,0.90872
2505.16843,0.90889
2503.23990,0.90916
2501.31136,0.90947
2499.38283,0.90974
2497.45429,0.90992
2495.52575,0.91003
2493.59722,0.91013
2491.66868,0.91021
2489.74014,0.91030
2487.81161,0.91047
2485.88307,0.91072
2483.95454,0.91094
2482.02600,0.91098
2480.09746,0.91096
2478.16893,0.91102
2476.24039,0.91118
2474.31186,0.91133
2472.38332,0.91139
2470.45478,0.91141
2468.52625,0.91143
2466.59771,0.91139
2464.66918,0.91125
2462.74064,0.91111
2460.81210,0.91106
2458.88357,0.91102
2456.95503,0.91093
2455.02649,0.91083
2453.09796,0.91069
2451.16942,0.91047
2449.24089,0.91030
2447.31235,0.91023
2445.38381,0.91022
2443.45528,0.91029
2441.52674,0.91053
2439.59821,0.91089
2437.66967,0.91117
2435.74113,0.91141
2433.81260,0.91162
2431.88406,0.91170
2429.95552,0.91174
2428.02699,0.91189
2426.09845,0.91208
2424.16992,0.91216
2422.24138,0.91208
2420.31284,0.91205
2418.38431,0.91214
2416.45577,0.91218
2414.52724,0.91201
2412.59870,0.91170
2410.67016,0.91140
2408.74163,0.91113
2406.81309,0.91084
2404.88456,0.91063
2402.95602,0.91067
2401.02748,0.91086
2399.09895,0.91111
2397.17041,0.91146
2395.24187,0.91185
2393.31334,0.91209
2391.38480,0.91211
2389.45627,0.91195
2387.52773,0.91158
2385.59919,0.91083
2383.67066,0.90947
2381.74212,0.90750
2379.81359,0.90501
2377.88505,0.90193
2375.95651,0.89821
2374.02798,0.89404
2372.09944,0.88962
2370.17090,0.88491
2368.24237,0.88013
2366.31383,0.87590
2364.38530,0.87249
2362.45676,0.86996
2360.52822,0.86889
2358.59969,0.86977
2356.67115,0.87259
2354.74262,0.87713
2352.81408,0.88297
2350.88554,0.88841
2348.95701,0.89119
2347.02847,0.89045
2345.09994,0.88672
2343.17140,0.88290
2341.24286,0.88141
2339.31433,0.88155
2337.38579,0.88227
2335.45725,0.88326
2333.52872,0.88410
2331.60018,0.88440
2329.67165,0.88455
2327.74311,0.88510
2325.81457,0.88625
2323.88604,0.88794
2321.95750,0.89010
2320.02897,0.89275
2318.10043,0.89570
2316.17189,0.89843
2314.24336,0.90052
2312.31482,0.90191
2310.38628,0.90302
2308.45775,0.90432
2306.52921,0.90583
2304.60068,0.90725
2302.67214,0.90828
2300.74360,0.90900
2298.81507,0.90968
2296.88653,0.91032
2294.95800,0.91086
2293.02946,0.91132
2291.10092,0.91180
2289.17239,0.91239
2287.24385,0.91315
2285.31532,0.91396
2283.38678,0.91461
2281.45824,0.91498
2279.52971,0.91518
2277.60117,0.91536
2275.67263,0.91548
2273.74410,0.91557
2271.81556,0.91559
2269.88703,0.91538
2267.95849,0.91512
2266.02995,0.91505
2264.10142,0.91521
2262.17288,0.91552
2260.24435,0.91577
2258.31581,0.91606
2256.38727,0.91657
2254.45874,0.91699
2252.53020,0.91707
2250.60166,0.91711
2248.67313,0.91727
2246.74459,0.91733
2244.81606,0.91735
2242.88752,0.91765
2240.95898,0.91821
2239.03045,0.91871
2237.10191,0.91918
2235.17338,0.91973
2233.24484,0.92015
2231.31630,0.92040
2229.38777,0.92058
2227.45923,0.92075
2225.53070,0.92088
2223.60216,0.92104
2221.67362,0.92119
2219.74509,0.92138
2217.81655,0.92174
2215.88801,0.92202
2213.95948,0.92192
2212.03094,0.92164
2210.10241,0.92140
2208.17387,0.92120
2206.24533,0.92114
2204.31680,0.92123
2202.38826,0.92127
2200.45973,0.92121
2198.53119,0.92113
2196.60265,0.92130
2194.67412,0.92185
2192.74558,0.92242
2190.81704,0.92286
2188.88851,0.92352
2186.95997,0.92430
2185.03144,0.92466
2183.10290,0.92482
2181.17436,0.92519
2179.24583,0.92559
2177.31729,0.92594
2175.38876,0.92620
2173.46022,0.92616
2171.53168,0.92579
2169.60315,0.92540
2167.67461,0.92537
2165.74607,0.92572
2163.81754,0.92612
2161.88900,0.92706
2159.96047,0.92914
2158.03193,0.93079
2156.10339,0.93046
2154.17486,0.92916
2152.24632,0.92809
2150.31779,0.92747
2148.38925,0.92717
2146.46071,0.92703
2144.53218,0.92685
2142.60364,0.92665
2140.67511,0.92662
2138.74657,0.92675
2136.81803,0.92684
2134.88950,0.92664
2132.96096,0.92615
2131.03242,0.92553
2129.10389,0.92498
2127.17535,0.92460
2125.24682,0.92444
2123.31828,0.92432
2121.38974,0.92400
2119.46121,0.92361
2117.53267,0.92338
2115.60414,0.92323
2113.67560,0.92318
2111.74706,0.92340
2109.81853,0.92377
2107.88999,0.92400
2105.96145,0.92403
2104.03292,0.92399
2102.10438,0.92401
2100.17585,0.92420
2098.24731,0.92453
2096.31877,0.92469
2094.39024,0.92457
2092.46170,0.92438
2090.53317,0.92423
2088.60463,0.92409
2086.67609,0.92398
2084.74756,0.92397
2082.81902,0.92400
2080.89049,0.92408
2078.96195,0.92425
2077.03341,0.92446
2075.10488,0.92467
2073.17634,0.92492
2071.24780,0.92520
2069.31927,0.92552
2067.39073,0.92580
2065.46220,0.92590
2063.53366,0.92590
2061.60512,0.92603
2059.67659,0.92623
2057.74805,0.92654
2055.81952,0.92705
2053.89098,0.92728
2051.96244,0.92723
2050.03391,0.92768
2048.10537,0.92852
2046.17683,0.92916
2044.24830,0.92977
2042.31976,0.93023
2040.39123,0.93030
2038.46269,0.93039
2036.53415,0.93079
2034.60562,0.93143
2032.67708,0.93199
2030.74855,0.93220
2028.82001,0.93232
2026.89147,0.93254
2024.96294,0.93270
2023.03440,0.93277
2021.10587,0.93294
2019.17733,0.93310
2017.24879,0.93308
2015.32026,0.93324
2013.39172,0.93339
2011.46318,0.93297
2009.53465,0.93232
2007.60611,0.93196
2005.67758,0.93154
2003.74904,0.93091
2001.82050,0.93032
1999.89197,0.92976
1997.96343,0.92934
1996.03490,0.92924
1994.10636,0.92928
1992.17782,0.92933
1990.24929,0.92948
1988.32075,0.92954
1986.39221,0.92920
1984.46368,0.92875
1982.53514,0.92851
1980.60661,0.92863
1978.67807,0.92925
1976.74953,0.92967
1974.82100,0.92945
1972.89246,0.92928
1970.96393,0.92935
1969.03539,0.92905
1967.10685,0.92826
1965.17832,0.92776
1963.24978,0.92802
1961.32125,0.92878
1959.39271,0.92939
1957.46417,0.92942
1955.53564,0.92928
1953.60710,0.92934
1951.67856,0.92954
1949.75003,0.92982
1947.82149,0.92996
1945.89296,0.92965
1943.96442,0.92914
1942.03588,0.92908
1940.10735,0.92945
1938.17881,0.92958
1936.25028,0.92928
1934.32174,0.92898
1932.39320,0.92885
1930.46467,0.92860
1928.53613,0.92811
1926.60759,0.92741
1924.67906,0.92647
1922.75052,0.92533
1920.82199,0.92449
1918.89345,0.92394
1916.96491,0.92344
1915.03638,0.92326
1913.10784,0.92339
1911.17931,0.92370
1909.25077,0.92400
1907.32223,0.92402
1905.39370,0.92376
1903.46516,0.92341
1901.53663,0.92312
1899.60809,0.92289
1897.67955,0.92272
1895.75102,0.92262
1893.82248,0.92265
1891.89394,0.92284
1889.96541,0.92323
1888.03687,0.92390
1886.10834,0.92475
1884.17980,0.92558
1882.25126,0.92620
1880.32273,0.92651
1878.39419,0.92662
1876.46566,0.92663
1874.53712,0.92649
1872.60858,0.92616
1870.68005,0.92564
1868.75151,0.92507
1866.82297,0.92508
1864.89444,0.92572
1862.96590,0.92649
1861.03737,0.92705
1859.10883,0.92737
1857.18029,0.92757
1855.25176,0.92765
1853.32322,0.92762
1851.39469,0.92746
1849.46615,0.92716
1847.53761,0.92678
1845.60908,0.92626
1843.68054,0.92580
1841.75200,0.92586
1839.82347,0.92604
1837.89493,0.92586
1835.96640,0.92542
1834.03786,0.92495
1832.10932,0.92429
1830.18079,0.92327
1828.25225,0.92245
1826.32372,0.92209
1824.39518,0.92189
1822.46664,0.92187
1820.53811,0.92191
1818.60957,0.92178
1816.68104,0.92155
1814.75250,0.92145
1812.82396,0.92167
1810.89543,0.92222
1808.96689,0.92302
1807.03835,0.92391
1805.10982,0.92464
1803.18128,0.92506
1801.25275,0.92529
1799.32421,0.92562
1797.39567,0.92595
1795.46714,0.92591
1793.53860,0.92536
1791.61007,0.92479
1789.68153,0.92498
1787.75299,0.92533
1785.82446,0.92525
1783.89592,0.92487
1781.96738,0.92446
1780.03885,0.92406
1778.11031,0.92380
1776.18178,0.92362
1774.25324,0.92316
1772.32470,0.92264
1770.39617,0.92301
1768.46763,0.92394
1766.53910,0.92465
1764.61056,0.92492
1762.68202,0.92482
1760.75349,0.92487
1758.82495,0.92529
1756.89642,0.92576
1754.96788,0.92616
1753.03934,0.92627
1751.11081,0.92582
1749.18227,0.92531
1747.25373,0.92536
1745.32520,0.92551
1743.39666,0.92529
1741.46813,0.92479
1739.53959,0.92450
1737.61105,0.92465
1735.68252,0.92472
1733.75398,0.92471
1731.82545,0.92560
1729.89691,0.92682
1727.96837,0.92769
1726.03984,0.92818
1724.11130,0.92838
1722.18276,0.92843
1720.25423,0.92817
1718.32569,0.92718
1716.39716,0.92643
1714.46862,0.92735
1712.54008,0.92852
1710.61155,0.92921
1708.68301,0.92938
1706.75448,0.92900
1704.82594,0.92861
1702.89740,0.92865
1700.96887,0.92833
1699.04033,0.92741
1697.11180,0.92701
1695.18326,0.92734
1693.25472,0.92784
1691.32619,0.92799
1689.39765,0.92775
1687.46911,0.92735
1685.54058,0.92653
1683.61204,0.92545
1681.68351,0.92563
1679.75497,0.92623
1677.82643,0.92640
1675.89790,0.92604
1673.96936,0.92558
1672.04083,0.92532
1670.11229,0.92513
1668.18375,0.92572
1666.25522,0.92681
1664.32668,0.92756
1662.39814,0.92824
1660.46961,0.92916
1658.54107,0.92992
1656.61254,0.93010
1654.68400,0.92927
1652.75546,0.92717
1650.82693,0.92638
1648.89839,0.92569
1646.96986,0.92386
1645.04132,0.92335
1643.11278,0.92448
1641.18425,0.92564
1639.25571,0.92615
1637.32718,0.92506
1635.39864,0.92106
1633.47010,0.91650
1631.54157,0.91303
1629.61303,0.91071
1627.68449,0.91120
1625.75596,0.91404
1623.82742,0.91675
1621.89889,0.91796
1619.97035,0.91736
1618.04181,0.91454
1616.11328,0.90930
1614.18474,0.90577
1612.25621,0.90496
1610.32767,0.90621
1608.39913,0.90955
1606.47060,0.91348
1604.54206,0.91641
1602.61352,0.91806
1600.68499,0.91892
1598.75645,0.91944
1596.82792,0.91970
1594.89938,0.91936
1592.97084,0.91747
1591.04231,0.91226
1589.11377,0.90256
1587.18524,0.89148
1585.25670,0.88445
1583.32816,0.88344
1581.39963,0.88605
1579.47109,0.88917
1577.54256,0.89178
1575.61402,0.89473
1573.68548,0.89871
1571.75695,0.90350
1569.82841,0.90971
1567.89987,0.91425
1565.97134,0.91337
1564.04280,0.90778
1562.11427,0.89971
1560.18573,0.88570
1558.25719,0.86123
1556.32866,0.85889
1554.40012,0.87138
1552.47159,0.88543
1550.54305,0.89742
1548.61451,0.90629
1546.68598,0.91113
1544.75744,0.91312
1542.82890,0.91390
1540.90037,0.91556
1538.97183,0.91953
1537.04330,0.92197
1535.11476,0.92231
1533.18622,0.92115
1531.25769,0.91948
1529.32915,0.91745
1527.40062,0.91451
1525.47208,0.91155
1523.54354,0.90992
1521.61501,0.90956
1519.68647,0.91089
1517.75793,0.91317
1515.82940,0.91587
1513.90086,0.91795
1511.97233,0.91856
1510.04379,0.91743
1508.11525,0.90922
1506.18672,0.88342
1504.25818,0.85765
1502.32965,0.82973
1500.40111,0.78972
1498.47257,0.74223
1496.54404,0.71308
1494.61550,0.71672
1492.68697,0.73293
1490.75843,0.74846
1488.82989,0.75088
1486.90136,0.73561
1484.97282,0.71717
1483.04428,0.70467
1481.11575,0.70303
1479.18721,0.71245
1477.25868,0.72862
1475.33014,0.74874
1473.40160,0.77387
1471.47307,0.79929
1469.54453,0.81376
1467.61600,0.82069
1465.68746,0.82409
1463.75892,0.82594
1461.83039,0.82859
1459.90185,0.83168
1457.97331,0.83234
1456.04478,0.82669
1454.11624,0.81858
1452.18771,0.80913
1450.25917,0.80084
1448.33063,0.80229
1446.40210,0.81693
1444.47356,0.83252
1442.54503,0.83307
1440.61649,0.80712
1438.68795,0.75374
1436.75942,0.68814
1434.83088,0.66013
1432.90235,0.67481
1430.97381,0.70586
1429.04527,0.74198
1427.11674,0.77119
1425.18820,0.79071
1423.25966,0.80131
1421.33113,0.80267
1419.40259,0.79708
1417.47406,0.79161
1415.54552,0.78929
1413.61698,0.78485
1411.68845,0.78095
1409.75991,0.78549
1407.83138,0.79488
1405.90284,0.80042
1403.97430,0.80439
1402.04577,0.81327
1400.11723,0.82696
1398.18869,0.84135
1396.26016,0.85219
1394.33162,0.86013
1392.40309,0.86650
1390.47455,0.87162
1388.54601,0.87628
1386.61748,0.88059
1384.68894,0.88326
1382.76041,0.88402
1380.83187,0.88336
1378.90333,0.88197
1376.97480,0.88008
1375.04626,0.87684
1373.11773,0.87340
1371.18919,0.87340
1369.26065,0.87756
1367.33212,0.88351
1365.40358,0.88875
1363.47504,0.89366
1361.54651,0.89938
1359.61797,0.90474
1357.68944,0.90879
1355.76090,0.91175
1353.83236,0.91362
1351.90383,0.91442
1349.97529,0.91438
1348.04676,0.91399
1346.11822,0.91376
1344.18968,0.91361
1342.26115,0.91306
1340.33261,0.91190
1338.40407,0.91114
1336.47554,0.91162
1334.54700,0.91254
1332.61847,0.91309
1330.68993,0.91308
1328.76139,0.91274
1326.83286,0.91210
1324.90432,0.91055
1322.97579,0.90673
1321.04725,0.89968
1319.11871,0.89165
1317.19018,0.88747
1315.26164,0.88801
1313.33311,0.88938
1311.40457,0.88817
1309.47603,0.88180
1307.54750,0.86788
1305.61896,0.84971
1303.69042,0.83906
1301.76189,0.84373
1299.83335,0.85588
1297.90482,0.85980
1295.97628,0.84350
1294.04774,0.80117
1292.11921,0.73717
1290.19067,0.66943
1288.26214,0.61973
1286.33360,0.59870
1284.40506,0.60336
1282.47653,0.62547
1280.54799,0.65651
1278.61945,0.68791
1276.69092,0.71304
1274.76238,0.72970
1272.83385,0.73995
1270.90531,0.74854
1268.97677,0.75949
1267.04824,0.77259
1265.11970,0.78488
1263.19117,0.79548
1261.26263,0.80651
1259.33409,0.81899
1257.40556,0.83095
1255.47702,0.83981
1253.54849,0.84375
1251.61995,0.84123
1249.69141,0.83141
1247.76288,0.81718
1245.83434,0.80694
1243.90580,0.80797
1241.97727,0.81795
1240.04873,0.82867
1238.12020,0.83584
1236.19166,0.83944
1234.26312,0.83832
1232.33459,0.82891
1230.40605,0.80853
1228.47752,0.77941
1226.54898,0.75182
1224.62044,0.74086
1222.69191,0.75412
1220.76337,0.78341
1218.83483,0.81408
1216.90630,0.83816
1214.97776,0.85535
1213.04923,0.86740
1211.12069,0.87574
1209.19215,0.88159
1207.26362,0.88586
1205.33508,0.88895
1203.40655,0.89100
1201.47801,0.89200
1199.54947,0.89156
1197.62094,0.88906
1195.69240,0.88459
1193.76387,0.87927
1191.83533,0.87389
1189.90679,0.86889
1187.97826,0.86624
1186.04972,0.86829
1184.12118,0.87422
1182.19265,0.88068
1180.26411,0.88524
1178.33558,0.88690
1176.40704,0.88496
1174.47850,0.87866
1172.54997,0.86773
1170.62143,0.85361
1168.69290,0.83950
1166.76436,0.82857
1164.83582,0.82259
1162.90729,0.82263
1160.97875,0.82911
1159.05021,0.84012
1157.12168,0.85199
1155.19314,0.86195
1153.26461,0.86933
1151.33607,0.87396
1149.40753,0.87419
1147.47900,0.86733
1145.55046,0.85292
1143.62193,0.83528
1141.69339,0.81999
1139.76485,0.80687
1137.83632,0.79224
1135.90778,0.77827
1133.97924,0.76753
1132.05071,0.74912
1130.12217,0.70522
1128.19364,0.63421
1126.26510,0.55962
1124.33656,0.51422
1122.40803,0.51638
1120.47949,0.55789
1118.55096,0.61284
1116.62242,0.66193
1114.69388,0.70197
1112.76535,0.73180
1110.83681,0.74579
1108.90828,0.74183
1106.97974,0.72483
1105.05120,0.70330
1103.12267,0.68439
1101.19413,0.67217
1099.26559,0.67239
1097.33706,0.69141
1095.40852,0.72521
1093.47999,0.75976
1091.55145,0.78600
1089.62291,0.80495
1087.69438,0.81956
1085.76584,0.82926
1083.83731,0.83170
1081.90877,0.82501
1079.98023,0.80559
1078.05170,0.76997
1076.12316,0.72618
1074.19462,0.69419
1072.26609,0.68681
1070.33755,0.69984
1068.40902,0.72333
1066.48048,0.75065
1064.55194,0.77666
1062.62341,0.79657
1060.69487,0.80850
1058.76634,0.81480
1056.83780,0.82015
1054.90926,0.82766
1052.98073,0.83658
1051.05219,0.84404
1049.12366,0.84803
1047.19512,0.84861
1045.26658,0.84728
1043.33805,0.84520
1041.40951,0.84205
1039.48097,0.83790
1037.55244,0.83542
1035.62390,0.83756
1033.69537,0.84297
1031.76683,0.84510
1029.83829,0.83758
1027.90976,0.82122
1025.98122,0.80052
1024.05269,0.77234
1022.12415,0.73312
1020.19561,0.69810
1018.26708,0.68963
1016.33854,0.70535
1014.41000,0.71720
1012.48147,0.70133
1010.55293,0.66438
1008.62440,0.63864
1006.69586,0.64476
1004.76732,0.67111
1002.83879,0.69742
1000.91025,0.71792
998.98172,0.73663
997.05318,0.75744
995.12464,0.78016
993.19611,0.80016
991.26757,0.81372
989.33904,0.82198
987.41050,0.82781
985.48196,0.83246
983.55343,0.83563
981.62489,0.83718
979.69635,0.83823
977.76782,0.83998
975.83928,0.84248
973.91075,0.84507
971.98221,0.84735
970.05367,0.84865
968.12514,0.84712
966.19660,0.83933
964.26807,0.82035
962.33953,0.78796
960.41099,0.75426
958.48246,0.74356
956.55392,0.76365
954.62538,0.79621
952.69685,0.82396
950.76831,0.84418
948.83978,0.85853
946.91124,0.86812
944.98270,0.87404
943.05417,0.87662
941.12563,0.87559
939.19710,0.87180
937.26856,0.86833
935.34002,0.86788
933.41149,0.86847
931.48295,0.86409
929.55442,0.84857
927.62588,0.81981
925.69734,0.78521
923.76881,0.76108
921.84027,0.75982
919.91173,0.77852
917.98320,0.80405
916.05466,0.82548
914.12613,0.83960
912.19759,0.84817
910.26905,0.85321
908.34052,0.85529
906.41198,0.85421
904.48345,0.84949
902.55491,0.83995
900.62637,0.82360
898.69784,0.79923
896.76930,0.76911
894.84076,0.74119
892.91223,0.72738
890.98369,0.73504
889.05516,0.75889
887.12662,0.78451
885.19808,0.79913
883.26955,0.79575
881.34101,0.77211
879.41248,0.73623
877.48394,0.71129
875.55540,0.71802
873.62687,0.75126
871.69833,0.78925
869.76980,0.81861
867.84126,0.83844
865.91272,0.85124
863.98419,0.85885
862.05565,0.86295
860.12711,0.86502
858.19858,0.86598
856.27004,0.86662
854.34151,0.86823
852.41297,0.87134
850.48443,0.87506
848.55590,0.87841
846.62736,0.88169
844.69883,0.88561
842.77029,0.89004
840.84175,0.89403
838.91322,0.89677
836.98468,0.89803
835.05614,0.89746
833.12761,0.89458
831.19907,0.88964
829.27054,0.88307
827.34200,0.87390
825.41346,0.86019
823.48493,0.84026
821.55639,0.81264
819.62786,0.78126
817.69932,0.76098
815.77078,0.76523
813.84225,0.78439
811.91371,0.79418
809.98517,0.79240
808.05664,0.80072
806.12810,0.82584
804.19957,0.85254
802.27103,0.87027
800.34249,0.88012
798.41396,0.88615
796.48542,0.89135
794.55689,0.89595
792.62835,0.89862
790.69981,0.89842
788.77128,0.89383
786.84274,0.88264
784.91421,0.86832
782.98567,0.85745
781.05713,0.84467
779.12860,0.82359
777.20006,0.80816
775.27152,0.81468
773.34299,0.83687
771.41445,0.85488
769.48592,0.85369
767.55738,0.83438
765.62884,0.81657
763.70031,0.81737
761.77177,0.82728
759.84324,0.82408
757.91470,0.80534
755.98616,0.78925
754.05763,0.78496
752.12909,0.78088
750.20055,0.76716
748.27202,0.75039
746.34348,0.73656
744.41495,0.72106
742.48641,0.70935
740.55787,0.71897
738.62934,0.75138
736.70080,0.78963
734.77227,0.82119
732.84373,0.84448
730.91519,0.86151
728.98666,0.87395
727.05812,0.88246
725.12959,0.88595
723.20105,0.88093
721.27251,0.86116
719.34398,0.82398
717.41544,0.77999
715.48690,0.74263
713.55837,0.71300
711.62983,0.68474
709.70130,0.65889
707.77276,0.64517
705.84422,0.64193
703.91569,0.63307
701.98715,0.61600
700.05862,0.60200
698.13008,0.59359
696.20154,0.58839
694.27301,0.58814
692.34447,0.59435
690.41593,0.60720
688.48740,0.62856
686.55886,0.65458
684.63033,0.67174
682.70179,0.68010
680.77325,0.69650
678.84472,0.72585
676.91618,0.75691
674.98765,0.78164
673.05911,0.79935
671.13057,0.81079
669.20204,0.81877
667.27350,0.82500
665.34497,0.82783
663.41643,0.82784
661.48789,0.82175
659.55936,0.80391
657.63082,0.77682
655.70228,0.75042
653.77375,0.73450
651.84521,0.74003
649.91668,0.76958
647.98814,0.80679
646.05960,0.83464
644.13107,0.85138
642.20253,0.86068
640.27400,0.86350
638.34546,0.85671
636.41692,0.83698
634.48839,0.81500
632.55985,0.81226
630.63131,0.83090
628.70278,0.85329
626.77424,0.86882
624.84571,0.87813
622.91717,0.88282
620.98863,0.88021
619.06010,0.86839
617.13156,0.85825
615.20303,0.86304
613.27449,0.87619
611.34595,0.88565
609.41742,0.89045
607.48888,0.89329
605.56035,0.89503
603.63181,0.89601
601.70327,0.89615
599.77474,0.89502
597.84620,0.89192
595.91766,0.88576
593.98913,0.87593
592.06059,0.86540
590.13206,0.86074
588.20352,0.86376
586.27498,0.86860
584.34645,0.86897
582.41791,0.86514
580.48938,0.86299
578.56084,0.86691
576.63230,0.87577
574.70377,0.88550
572.77523,0.89310
570.84669,0.89809
568.91816,0.90104
566.98962,0.90271
565.06109,0.90395
563.13255,0.90524
561.20401,0.90632
559.27548,0.90579
557.34694,0.89976
555.41841,0.87896
553.48987,0.83036
551.56133,0.75967
549.63280,0.71008
547.70426,0.72142
545.77573,0.77641
543.84719,0.82867
541.91865,0.85722
539.99012,0.86295
538.06158,0.84380
536.13304,0.78723
534.20451,0.68887
532.27597,0.58598
530.34744,0.53866
528.41890,0.55233
526.49036,0.56857
524.56183,0.56034
522.63329,0.56741
520.70476,0.61278
518.77622,0.67953
516.84768,0.73968
514.91915,0.77672
512.99061,0.79126
511.06207,0.78582
509.13354,0.75895
507.20500,0.72014
505.27647,0.70123
503.34793,0.72401
501.41939,0.77054
499.49086,0.80723
497.56232,0.82533
495.63379,0.82919
493.70525,0.81673
491.77671,0.77947
489.84818,0.71585
487.91964,0.64595
485.99110,0.60232
484.06257,0.60769
482.13403,0.65000
480.20550,0.69765
478.27696,0.73375
476.34842,0.75769
474.41989,0.77711
472.49135,0.79680
470.56282,0.81051
468.63428,0.81607
466.70574,0.82079
464.77721,0.82643
462.84867,0.82891
460.92014,0.82793
458.99160,0.82701
457.06306,0.82778
455.13453,0.82808
453.20599,0.82570
451.27745,0.81959
449.34892,0.80873
447.42038,0.79201
445.49185,0.77476
443.56331,0.76930
441.63477,0.78047
439.70624,0.79741
437.77770,0.80887
435.84917,0.81159
433.92063,0.80704
431.99209,0.80061
430.06356,0.79628
428.13502,0.79564
426.20648,0.79958
424.27795,0.80745
422.34941,0.81563
420.42088,0.82102
418.49234,0.82520
416.56380,0.83163
414.63527,0.83974
412.70673,0.84902
410.77820,0.85737
408.84966,0.86247
406.92112,0.86401
404.99259,0.86182
403.06405,0.85665
401.13552,0.84946
399.20698,0.83864
