3997.85540,0.94986
3995.92686,0.94992
3993.99833,0.94982
3992.06979,0.94972
3990.14125,0.94975
3988.21272,0.94984
3986.28418,0.94990
3984.35565,0.94993
3982.42711,0.95001
3980.49857,0.95010
3978.57004,0.95000
3976.64150,0.94973
3974.71297,0.94957
3972.78443,0.94963
3970.85589,0.94976
3968.92736,0.94989
3966.99882,0.94999
3965.07029,0.94993
3963.14175,0.94977
3961.21321,0.94980
3959.28468,0.94995
3957.35614,0.94998
3955.42760,0.94998
3953.49907,0.94993
3951.57053,0.94957
3949.64200,0.94910
3947.71346,0.94903
3945.78492,0.94925
3943.85639,0.94937
3941.92785,0.94962
3939.99932,0.95002
3938.07078,0.95017
3936.14224,0.95000
3934.21371,0.94956
3932.28517,0.94909
3930.35663,0.94917
3928.42810,0.94950
3926.49956,0.94935
3924.57103,0.94898
3922.64249,0.94901
3920.71395,0.94909
3918.78542,0.94895
3916.85688,0.94911
3914.92835,0.94976
3912.99981,0.95036
3911.07127,0.95056
3909.14274,0.95026
3907.21420,0.94930
3905.28566,0.94775
3903.35713,0.94664
3901.42859,0.94680
3899.50006,0.94773
3897.57152,0.94880
3895.64298,0.94926
3893.71445,0.94884
3891.78591,0.94830
3889.85738,0.94859
3887.92884,0.94875
3886.00030,0.94823
3884.07177,0.94787
3882.14323,0.94793
3880.21470,0.94833
3878.28616,0.94903
3876.35762,0.94916
3874.42909,0.94848
3872.50055,0.94748
3870.57201,0.94679
3868.64348,0.94707
3866.71494,0.94746
3864.78641,0.94725
3862.85787,0.94761
3860.92933,0.94873
3859.00080,0.94922
3857.07226,0.94845
3855.14373,0.94647
3853.21519,0.94507
3851.28665,0.94691
3849.35812,0.94897
3847.42958,0.94993
3845.50104,0.94976
3843.57251,0.94875
3841.64397,0.94748
3839.71544,0.94637
3837.78690,0.94612
3835.85836,0.94700
3833.92983,0.94803
3832.00129,0.94882
3830.07276,0.94939
3828.14422,0.94950
3826.21568,0.94918
3824.28715,0.94856
3822.35861,0.94745
3820.43008,0.94682
3818.50154,0.94735
3816.57300,0.94799
3814.64447,0.94912
3812.71593,0.95025
3810.78739,0.95047
3808.85886,0.94975
3806.93032,0.94890
3805.00179,0.94864
3803.07325,0.94816
3801.14471,0.94762
3799.21618,0.94806
3797.28764,0.94880
3795.35911,0.94983
3793.43057,0.95095
3791.50203,0.95157
3789.57350,0.95164
3787.64496,0.95124
3785.71642,0.95069
3783.78789,0.95053
3781.85935,0.95057
3779.93082,0.95052
3778.00228,0.95087
3776.07374,0.95140
3774.14521,0.95149
3772.21667,0.95103
3770.28814,0.95025
3768.35960,0.94986
3766.43106,0.95005
3764.50253,0.95050
3762.57399,0.95064
3760.64546,0.95007
3758.71692,0.94946
3756.78838,0.94946
3754.85985,0.94914
3752.93131,0.94764
3751.00277,0.94576
3749.07424,0.94587
3747.14570,0.94665
3745.21717,0.94699
3743.28863,0.94743
3741.36009,0.94784
3739.43156,0.94765
3737.50302,0.94638
3735.57449,0.94455
3733.64595,0.94466
3731.71741,0.94659
3729.78888,0.94796
3727.86034,0.94809
3725.93180,0.94757
3724.00327,0.94750
3722.07473,0.94828
3720.14620,0.94946
3718.21766,0.95042
3716.28912,0.95073
3714.36059,0.95002
3712.43205,0.94826
3710.50352,0.94726
3708.57498,0.94832
3706.64644,0.94951
3704.71791,0.94993
3702.78937,0.94991
3700.86084,0.95018
3698.93230,0.95064
3697.00376,0.95078
3695.07523,0.95051
3693.14669,0.94959
3691.21815,0.94797
3689.28962,0.94729
3687.36108,0.94891
3685.43255,0.95063
3683.50401,0.95145
3681.57547,0.95131
3679.64694,0.95029
3677.71840,0.94868
3675.78987,0.94754
3673.86133,0.94802
3671.93279,0.94834
3670.00426,0.94873
3668.07572,0.95064
3666.14718,0.95233
3664.21865,0.95299
3662.29011,0.95311
3660.36158,0.95293
3658.43304,0.95232
3656.50450,0.95153
3654.57597,0.95112
3652.64743,0.95034
3650.71890,0.94827
3648.79036,0.94703
3646.86182,0.94923
3644.93329,0.95126
3643.00475,0.95207
3641.07622,0.95225
3639.14768,0.95222
3637.21914,0.95203
3635.29061,0.95161
3633.36207,0.95094
3631.43353,0.94987
3629.50500,0.94844
3627.57646,0.94856
3625.64793,0.95003
3623.71939,0.95077
3621.79085,0.95035
3619.86232,0.94937
3617.93378,0.94928
3616.00525,0.94972
3614.07671,0.94980
3612.14817,0.94992
3610.21964,0.95008
3608.29110,0.95027
3606.36256,0.95103
3604.43403,0.95170
3602.50549,0.95155
3600.57696,0.95098
3598.64842,0.95070
3596.71988,0.95061
3594.79135,0.95070
3592.86281,0.95111
3590.93428,0.95117
3589.00574,0.95040
3587.07720,0.95006
3585.14867,0.95126
3583.22013,0.95247
3581.29160,0.95298
3579.36306,0.95305
3577.43452,0.95297
3575.50599,0.95291
3573.57745,0.95289
3571.64891,0.95262
3569.72038,0.95168
3567.79184,0.95030
3565.86331,0.95016
3563.93477,0.95125
3562.00623,0.95211
3560.07770,0.95261
3558.14916,0.95292
3556.22063,0.95295
3554.29209,0.95267
3552.36355,0.95245
3550.43502,0.95242
3548.50648,0.95211
3546.57794,0.95161
3544.64941,0.95175
3542.72087,0.95245
3540.79234,0.95295
3538.86380,0.95295
3536.93526,0.95267
3535.00673,0.95256
3533.07819,0.95255
3531.14966,0.95227
3529.22112,0.95173
3527.29258,0.95138
3525.36405,0.95134
3523.43551,0.95159
3521.50697,0.95207
3519.57844,0.95248
3517.64990,0.95266
3515.72137,0.95272
3513.79283,0.95273
3511.86429,0.95261
3509.93576,0.95236
3508.00722,0.95227
3506.07869,0.95228
3504.15015,0.95211
3502.22161,0.95214
3500.29308,0.95250
3498.36454,0.95261
3496.43601,0.95246
3494.50747,0.95248
3492.57893,0.95271
3490.65040,0.95280
3488.72186,0.95277
3486.79332,0.95283
3484.86479,0.95281
3482.93625,0.95260
3481.00772,0.95253
3479.07918,0.95280
3477.15064,0.95307
3475.22211,0.95317
3473.29357,0.95319
3471.36504,0.95317
3469.43650,0.95307
3467.50796,0.95295
3465.57943,0.95294
3463.65089,0.95301
3461.72235,0.95305
3459.79382,0.95304
3457.86528,0.95302
3455.93675,0.95302
3454.00821,0.95305
3452.07967,0.95306
3450.15114,0.95288
3448.22260,0.95261
3446.29407,0.95263
3444.36553,0.95295
3442.43699,0.95323
3440.50846,0.95338
3438.57992,0.95348
3436.65139,0.95355
3434.72285,0.95353
3432.79431,0.95344
3430.86578,0.95340
3428.93724,0.95353
3427.00870,0.95372
3425.08017,0.95378
3423.15163,0.95362
3421.22310,0.95345
3419.29456,0.95351
3417.36602,0.95378
3415.43749,0.95396
3413.50895,0.95389
3411.58042,0.95379
3409.65188,0.95384
3407.72334,0.95389
3405.79481,0.95384
3403.86627,0.95377
3401.93773,0.95377
3400.00920,0.95376
3398.08066,0.95373
3396.15213,0.95378
3394.22359,0.95380
3392.29505,0.95375
3390.36652,0.95376
3388.43798,0.95387
3386.50945,0.95395
3384.58091,0.95395
3382.65237,0.95392
3380.72384,0.95392
3378.79530,0.95397
3376.86677,0.95405
3374.93823,0.95413
3373.00969,0.95414
3371.08116,0.95400
3369.15262,0.95380
3367.22408,0.95372
3365.29555,0.95380
3363.36701,0.95390
3361.43848,0.95390
3359.50994,0.95381
3357.58140,0.95373
3355.65287,0.95370
3353.72433,0.95374
3351.79580,0.95379
3349.86726,0.95382
3347.93872,0.95385
3346.01019,0.95387
3344.08165,0.95388
3342.15311,0.95389
3340.22458,0.95387
3338.29604,0.95385
3336.36751,0.95393
3334.43897,0.95400
3332.51043,0.95396
3330.58190,0.95391
3328.65336,0.95399
3326.72483,0.95411
3324.79629,0.95414
3322.86775,0.95403
3320.93922,0.95393
3319.01068,0.95400
3317.08215,0.95411
3315.15361,0.95410
3313.22507,0.95405
3311.29654,0.95407
3309.36800,0.95415
3307.43946,0.95422
3305.51093,0.95421
3303.58239,0.95413
3301.65386,0.95398
3299.72532,0.95387
3297.79678,0.95390
3295.86825,0.95403
3293.93971,0.95407
3292.01118,0.95389
3290.08264,0.95357
3288.15410,0.95330
3286.22557,0.95318
3284.29703,0.95320
3282.36849,0.95334
3280.43996,0.95350
3278.51142,0.95362
3276.58289,0.95376
3274.65435,0.95393
3272.72581,0.95411
3270.79728,0.95419
3268.86874,0.95411
3266.94021,0.95397
3265.01167,0.95388
3263.08313,0.95381
3261.15460,0.95380
3259.22606,0.95387
3257.29753,0.95394
3255.36899,0.95402
3253.44045,0.95414
3251.51192,0.95420
3249.58338,0.95417
3247.65484,0.95414
3245.72631,0.95412
3243.79777,0.95415
3241.86924,0.95425
3239.94070,0.95430
3238.01216,0.95432
3236.08363,0.95438
3234.15509,0.95443
3232.22656,0.95441
3230.29802,0.95436
3228.36948,0.95434
3226.44095,0.95441
3224.51241,0.95451
3222.58387,0.95456
3220.65534,0.95450
3218.72680,0.95441
3216.79827,0.95440
3214.86973,0.95448
3212.94119,0.95454
3211.01266,0.95446
3209.08412,0.95435
3207.15559,0.95440
3205.22705,0.95458
3203.29851,0.95468
3201.36998,0.95463
3199.44144,0.95451
3197.51290,0.95446
3195.58437,0.95452
3193.65583,0.95458
3191.72730,0.95456
3189.79876,0.95456
3187.87022,0.95460
3185.94169,0.95455
3184.01315,0.95444
3182.08462,0.95443
3180.15608,0.95443
3178.22754,0.95434
3176.29901,0.95425
3174.37047,0.95419
3172.44194,0.95412
3170.51340,0.95408
3168.58486,0.95411
3166.65633,0.95420
3164.72779,0.95430
3162.79925,0.95435
3160.87072,0.95442
3158.94218,0.95467
3157.01365,0.95499
3155.08511,0.95513
3153.15657,0.95506
3151.22804,0.95497
3149.29950,0.95496
3147.37097,0.95503
3145.44243,0.95515
3143.51389,0.95522
3141.58536,0.95521
3139.65682,0.95520
3137.72828,0.95517
3135.79975,0.95509
3133.87121,0.95504
3131.94268,0.95502
3130.01414,0.95501
3128.08560,0.95494
3126.15707,0.95480
3124.22853,0.95471
3122.30000,0.95470
3120.37146,0.95472
3118.44292,0.95468
3116.51439,0.95456
3114.58585,0.95441
3112.65732,0.95433
3110.72878,0.95434
3108.80024,0.95433
3106.87171,0.95417
3104.94317,0.95391
3103.01463,0.95368
3101.08610,0.95354
3099.15756,0.95340
3097.22903,0.95324
3095.30049,0.95319
3093.37195,0.95332
3091.44342,0.95350
3089.51488,0.95359
3087.58635,0.95361
3085.65781,0.95365
3083.72927,0.95372
3081.80074,0.95379
3079.87220,0.95386
3077.94366,0.95387
3076.01513,0.95376
3074.08659,0.95363
3072.15806,0.95351
3070.22952,0.95335
3068.30098,0.95316
3066.37245,0.95305
3064.44391,0.95295
3062.51538,0.95282
3060.58684,0.95278
3058.65830,0.95286
3056.72977,0.95295
3054.80123,0.95291
3052.87270,0.95284
3050.94416,0.95272
3049.01562,0.95255
3047.08709,0.95256
3045.15855,0.95278
3043.23001,0.95289
3041.30148,0.95264
3039.37294,0.95212
3037.44441,0.95183
3035.51587,0.95200
3033.58733,0.95207
3031.65880,0.95168
3029.73026,0.95125
3027.80173,0.95112
3025.87319,0.95120
3023.94465,0.95120
3022.01612,0.95108
3020.08758,0.95095
3018.15904,0.95072
3016.23051,0.95035
3014.30197,0.94992
3012.37344,0.94946
3010.44490,0.94889
3008.51636,0.94822
3006.58783,0.94758
3004.65929,0.94711
3002.73076,0.94680
3000.80222,0.94670
2998.87368,0.94687
2996.94515,0.94707
2995.01661,0.94716
2993.08808,0.94716
2991.15954,0.94682
2989.23100,0.94613
2987.30247,0.94548
2985.37393,0.94517
2983.44539,0.94524
2981.51686,0.94539
2979.58832,0.94508
2977.65979,0.94431
2975.73125,0.94345
2973.80271,0.94240
2971.87418,0.94090
2969.94564,0.93926
2968.01711,0.93781
2966.08857,0.93666
2964.16003,0.93580
2962.23150,0.93502
2960.30296,0.93424
2958.37442,0.93372
2956.44589,0.93373
2954.51735,0.93433
2952.58882,0.93494
2950.66028,0.93515
2948.73174,0.93544
2946.80321,0.93585
2944.87467,0.93565
2942.94614,0.93451
2941.01760,0.93280
2939.08906,0.93105
2937.16053,0.92934
2935.23199,0.92747
2933.30346,0.92559
2931.37492,0.92393
2929.44638,0.92228
2927.51785,0.92047
2925.58931,0.91893
2923.66077,0.91818
2921.73224,0.91846
2919.80370,0.91968
2917.87517,0.92156
2915.94663,0.92376
2914.01809,0.92596
2912.08956,0.92784
2910.16102,0.92925
2908.23249,0.93034
2906.30395,0.93130
2904.37541,0.93219
2902.44688,0.93289
2900.51834,0.93348
2898.58980,0.93414
2896.66127,0.93483
2894.73273,0.93535
2892.80420,0.93564
2890.87566,0.93591
2888.94712,0.93629
2887.01859,0.93667
2885.09005,0.93700
2883.16152,0.93740
2881.23298,0.93784
2879.30444,0.93818
2877.37591,0.93845
2875.44737,0.93877
2873.51883,0.93898
2871.59030,0.93887
2869.66176,0.93858
2867.73323,0.93827
2865.80469,0.93782
2863.87615,0.93714
2861.94762,0.93626
2860.01908,0.93512
2858.09055,0.93379
2856.16201,0.93253
2854.23347,0.93173
2852.30494,0.93172
2850.37640,0.93263
2848.44787,0.93423
2846.51933,0.93606
2844.59079,0.93786
2842.66226,0.93953
2840.73372,0.94105
2838.80518,0.94231
2836.87665,0.94323
2834.94811,0.94388
2833.01958,0.94436
2831.09104,0.94472
2829.16250,0.94497
2827.23397,0.94507
2825.30543,0.94508
2823.37690,0.94505
2821.44836,0.94494
2819.51982,0.94473
2817.59129,0.94438
2815.66275,0.94390
2813.73421,0.94343
2811.80568,0.94302
2809.87714,0.94263
2807.94861,0.94228
2806.02007,0.94206
2804.09153,0.94208
2802.16300,0.94237
2800.23446,0.94287
2798.30593,0.94344
2796.37739,0.94398
2794.44885,0.94452
2792.52032,0.94515
2790.59178,0.94586
2788.66325,0.94647
2786.73471,0.94689
2784.80617,0.94728
2782.87764,0.94777
2780.94910,0.94827
2779.02056,0.94876
2777.09203,0.94930
2775.16349,0.94984
2773.23496,0.95018
2771.30642,0.95037
2769.37788,0.95064
2767.44935,0.95099
2765.52081,0.95129
2763.59228,0.95155
2761.66374,0.95178
2759.73520,0.95199
2757.80667,0.95218
2755.87813,0.95231
2753.94959,0.95239
2752.02106,0.95252
2750.09252,0.95271
2748.16399,0.95288
2746.23545,0.95294
2744.30691,0.95295
2742.37838,0.95299
2740.44984,0.95312
2738.52131,0.95331
2736.59277,0.95349
2734.66423,0.95362
2732.73570,0.95375
2730.80716,0.95392
2728.87863,0.95413
2726.95009,0.95432
2725.02155,0.95444
2723.09302,0.95453
2721.16448,0.95466
2719.23594,0.95479
2717.30741,0.95484
2715.37887,0.95481
2713.45034,0.95477
2711.52180,0.95479
2709.59326,0.95486
2707.66473,0.95494
2705.73619,0.95502
2703.80766,0.95507
2701.87912,0.95508
2699.95058,0.95506
2698.02205,0.95503
2696.09351,0.95502
2694.16497,0.95503
2692.23644,0.95503
2690.30790,0.95501
2688.37937,0.95496
2686.45083,0.95492
2684.52229,0.95493
2682.59376,0.95499
2680.66522,0.95508
2678.73669,0.95513
2676.80815,0.95506
2674.87961,0.95494
2672.95108,0.95479
2671.02254,0.95460
2669.09401,0.95437
2667.16547,0.95409
2665.23693,0.95382
2663.30840,0.95370
2661.37986,0.95376
2659.45132,0.95390
2657.52279,0.95407
2655.59425,0.95429
2653.66572,0.95450
2651.73718,0.95466
2649.80864,0.95476
2647.88011,0.95484
2645.95157,0.95489
2644.02304,0.95497
2642.09450,0.95516
2640.16596,0.95537
2638.23743,0.95551
2636.30889,0.95557
2634.38035,0.95557
2632.45182,0.95552
2630.52328,0.95550
2628.59475,0.95549
2626.66621,0.95537
2624.73767,0.95513
2622.80914,0.95495
2620.88060,0.95483
2618.95207,0.95468
2617.02353,0.95462
2615.09499,0.95480
2613.16646,0.95512
2611.23792,0.95534
2609.30939,0.95538
2607.38085,0.95537
2605.45231,0.95544
2603.52378,0.95561
2601.59524,0.95575
2599.66670,0.95573
2597.73817,0.95552
2595.80963,0.95525
2593.88110,0.95513
2591.95256,0.95510
2590.02402,0.95502
2588.09549,0.95501
2586.16695,0.95515
2584.23842,0.95539
2582.30988,0.95565
2580.38134,0.95587
2578.45281,0.95610
2576.52427,0.95626
2574.59573,0.95623
2572.66720,0.95617
2570.73866,0.95631
2568.81013,0.95660
2566.88159,0.95695
2564.95305,0.95726
2563.02452,0.95740
2561.09598,0.95744
2559.16745,0.95755
2557.23891,0.95772
2555.31037,0.95791
2553.38184,0.95811
2551.45330,0.95828
2549.52476,0.95833
2547.59623,0.95828
2545.66769,0.95821
2543.73916,0.95820
2541.81062,0.95821
2539.88208,0.95818
2537.95355,0.95817
2536.02501,0.95819
2534.09648,0.95825
2532.16794,0.95837
2530.23940,0.95849
2528.31087,0.95860
2526.38233,0.95876
2524.45380,0.95899
2522.52526,0.95919
2520.59672,0.95926
2518.66819,0.95929
2516.73965,0.95938
2514.81111,0.95960
2512.88258,0.95984
2510.95404,0.95985
2509.02551,0.95973
2507.09697,0.95978
2505.16843,0.95984
2503.23990,0.95973
2501.31136,0.95965
2499.38283,0.95968
2497.45429,0.95982
2495.52575,0.96001
2493.59722,0.96017
2491.66868,0.96024
2489.74014,0.96023
2487.81161,0.96032
2485.88307,0.96054
2483.95454,0.96072
2482.02600,0.96075
2480.09746,0.96074
2478.16893,0.96076
2476.24039,0.96087
2474.31186,0.96110
2472.38332,0.96136
2470.45478,0.96148
2468.52625,0.96141
2466.59771,0.96129
2464.66918,0.96124
2462.74064,0.96127
2460.81210,0.96132
2458.88357,0.96132
2456.95503,0.96128
2455.02649,0.96122
2453.09796,0.96110
2451.16942,0.96083
2449.24089,0.96052
2447.31235,0.96025
2445.38381,0.95997
2443.45528,0.95975
2441.52674,0.95971
2439.59821,0.95982
2437.66967,0.95994
2435.74113,0.96005
2433.81260,0.96022
2431.88406,0.96049
2429.95552,0.96081
2428.02699,0.96107
2426.09845,0.96123
2424.16992,0.96129
2422.24138,0.96134
2420.31284,0.96145
2418.38431,0.96153
2416.45577,0.96151
2414.52724,0.96143
2412.59870,0.96142
2410.67016,0.96149
2408.74163,0.96150
2406.81309,0.96137
2404.88456,0.96119
2402.95602,0.96115
2401.02748,0.96123
2399.09895,0.96125
2397.17041,0.96123
2395.24187,0.96124
2393.31334,0.96116
2391.38480,0.96092
2389.45627,0.96059
2387.52773,0.96005
2385.59919,0.95898
2383.67066,0.95713
2381.74212,0.95459
2379.81359,0.95150
2377.88505,0.94783
2375.95651,0.94361
2374.02798,0.93910
2372.09944,0.93448
2370.17090,0.92954
2368.24237,0.92444
2366.31383,0.91992
2364.38530,0.91649
2362.45676,0.91446
2360.52822,0.91411
2358.59969,0.91551
2356.67115,0.91901
2354.74262,0.92434
2352.81408,0.93065
2350.88554,0.93618
2348.95701,0.93859
2347.02847,0.93714
2345.09994,0.93286
2343.17140,0.92915
2341.24286,0.92823
2339.31433,0.92883
2337.38579,0.92976
2335.45725,0.93079
2333.52872,0.93164
2331.60018,0.93205
2329.67165,0.93245
2327.74311,0.93336
2325.81457,0.93492
2323.88604,0.93687
2321.95750,0.93912
2320.02897,0.94180
2318.10043,0.94451
2316.17189,0.94661
2314.24336,0.94813
2312.31482,0.94945
2310.38628,0.95083
2308.45775,0.95234
2306.52921,0.95394
2304.60068,0.95545
2302.67214,0.95657
2300.74360,0.95731
2298.81507,0.95798
2296.88653,0.95866
2294.95800,0.95924
2293.02946,0.95979
2291.10092,0.96034
2289.17239,0.96083
2287.24385,0.96135
2285.31532,0.96193
2283.38678,0.96236
2281.45824,0.96257
2279.52971,0.96269
2277.60117,0.96285
2275.67263,0.96300
2273.74410,0.96314
2271.81556,0.96323
2269.88703,0.96314
2267.95849,0.96309
2266.02995,0.96325
2264.10142,0.96342
2262.17288,0.96349
2260.24435,0.96359
2258.31581,0.96381
2256.38727,0.96413
2254.45874,0.96440
2252.53020,0.96452
2250.60166,0.96465
2248.67313,0.96474
2246.74459,0.96457
2244.81606,0.96437
2242.88752,0.96442
2240.95898,0.96463
2239.03045,0.96484
2237.10191,0.96506
2235.17338,0.96527
2233.24484,0.96536
2231.31630,0.96536
2229.38777,0.96529
2227.45923,0.96528
2225.53070,0.96557
2223.60216,0.96609
2221.67362,0.96628
2219.74509,0.96617
2217.81655,0.96645
2215.88801,0.96712
2213.95948,0.96743
2212.03094,0.96735
2210.10241,0.96742
2208.17387,0.96767
2206.24533,0.96782
2204.31680,0.96782
2202.38826,0.96761
2200.45973,0.96730
2198.53119,0.96713
2196.60265,0.96715
2194.67412,0.96724
2192.74558,0.96721
2190.81704,0.96716
2188.88851,0.96732
2186.95997,0.96757
2185.03144,0.96784
2183.10290,0.96828
2181.17436,0.96864
2179.24583,0.96879
2177.31729,0.96899
2175.38876,0.96916
2173.46022,0.96914
2171.53168,0.96882
2169.60315,0.96825
2167.67461,0.96786
2165.74607,0.96794
2163.81754,0.96821
2161.88900,0.96902
2159.96047,0.97102
2158.03193,0.97270
2156.10339,0.97253
2154.17486,0.97144
2152.24632,0.97055
2150.31779,0.97031
2148.38925,0.97062
2146.46071,0.97080
2144.53218,0.97055
2142.60364,0.97031
2140.67511,0.97040
2138.74657,0.97074
2136.81803,0.97112
2134.88950,0.97136
2132.96096,0.97124
2131.03242,0.97066
2129.10389,0.96994
2127.17535,0.96941
2125.24682,0.96907
2123.31828,0.96893
2121.38974,0.96891
2119.46121,0.96883
2117.53267,0.96865
2115.60414,0.96850
2113.67560,0.96834
2111.74706,0.96813
2109.81853,0.96804
2107.88999,0.96818
2105.96145,0.96846
2104.03292,0.96861
2102.10438,0.96863
2100.17585,0.96879
2098.24731,0.96909
2096.31877,0.96932
2094.39024,0.96939
2092.46170,0.96929
2090.53317,0.96909
2088.60463,0.96895
2086.67609,0.96888
2084.74756,0.96884
2082.81902,0.96879
2080.89049,0.96876
2078.96195,0.96883
2077.03341,0.96891
2075.10488,0.96890
2073.17634,0.96893
2071.24780,0.96924
2069.31927,0.96974
2067.39073,0.96988
2065.46220,0.96947
2063.53366,0.96919
2061.60512,0.96950
2059.67659,0.96993
2057.74805,0.97015
2055.81952,0.97037
2053.89098,0.97033
2051.96244,0.97001
2050.03391,0.97030
2048.10537,0.97122
2046.17683,0.97169
2044.24830,0.97161
2042.31976,0.97146
2040.39123,0.97157
2038.46269,0.97202
2036.53415,0.97250
2034.60562,0.97283
2032.67708,0.97285
2030.74855,0.97263
2028.82001,0.97288
2026.89147,0.97362
2024.96294,0.97400
2023.03440,0.97384
2021.10587,0.97365
2019.17733,0.97368
2017.24879,0.97372
2015.32026,0.97372
2013.39172,0.97378
2011.46318,0.97384
2009.53465,0.97394
2007.60611,0.97412
2005.67758,0.97398
2003.74904,0.97346
2001.82050,0.97288
1999.89197,0.97240
1997.96343,0.97211
1996.03490,0.97192
1994.10636,0.97162
1992.17782,0.97155
1990.24929,0.97173
1988.32075,0.97173
1986.39221,0.97173
1984.46368,0.97183
1982.53514,0.97188
1980.60661,0.97241
1978.67807,0.97376
1976.74953,0.97489
1974.82100,0.97527
1972.89246,0.97556
1970.96393,0.97589
1969.03539,0.97583
1967.10685,0.97534
1965.17832,0.97509
1963.24978,0.97530
1961.32125,0.97581
1959.39271,0.97627
1957.46417,0.97628
1955.53564,0.97590
1953.60710,0.97545
1951.67856,0.97512
1949.75003,0.97498
1947.82149,0.97497
1945.89296,0.97479
1943.96442,0.97431
1942.03588,0.97402
1940.10735,0.97418
1938.17881,0.97440
1936.25028,0.97442
1934.32174,0.97430
1932.39320,0.97411
1930.46467,0.97393
1928.53613,0.97383
1926.60759,0.97354
1924.67906,0.97284
1922.75052,0.97201
1920.82199,0.97160
1918.89345,0.97148
1916.96491,0.97154
1915.03638,0.97183
1913.10784,0.97192
1911.17931,0.97177
1909.25077,0.97173
1907.32223,0.97189
1905.39370,0.97200
1903.46516,0.97201
1901.53663,0.97217
1899.60809,0.97236
1897.67955,0.97228
1895.75102,0.97205
1893.82248,0.97190
1891.89394,0.97164
1889.96541,0.97131
1888.03687,0.97146
1886.10834,0.97185
1884.17980,0.97209
1882.25126,0.97221
1880.32273,0.97222
1878.39419,0.97218
1876.46566,0.97217
1874.53712,0.97206
1872.60858,0.97158
1870.68005,0.97065
1868.75151,0.96984
1866.82297,0.97009
1864.89444,0.97092
1862.96590,0.97149
1861.03737,0.97168
1859.10883,0.97171
1857.18029,0.97187
1855.25176,0.97212
1853.32322,0.97235
1851.39469,0.97236
1849.46615,0.97201
1847.53761,0.97134
1845.60908,0.97065
1843.68054,0.97080
1841.75200,0.97180
1839.82347,0.97248
1837.89493,0.97266
1835.96640,0.97273
1834.03786,0.97264
1832.10932,0.97203
1830.18079,0.97125
1828.25225,0.97116
1826.32372,0.97148
1824.39518,0.97189
1822.46664,0.97251
1820.53811,0.97301
1818.60957,0.97321
1816.68104,0.97320
1814.75250,0.97289
1812.82396,0.97227
1810.89543,0.97177
1808.96689,0.97180
1807.03835,0.97200
1805.10982,0.97191
1803.18128,0.97145
1801.25275,0.97108
1799.32421,0.97123
1797.39567,0.97138
1795.46714,0.97100
1793.53860,0.97020
1791.61007,0.97016
1789.68153,0.97131
1787.75299,0.97215
1785.82446,0.97224
1783.89592,0.97198
1781.96738,0.97166
1780.03885,0.97155
1778.11031,0.97160
1776.18178,0.97119
1774.25324,0.97002
1772.32470,0.96899
1770.39617,0.96945
1768.46763,0.97055
1766.53910,0.97125
1764.61056,0.97123
1762.68202,0.97060
1760.75349,0.97011
1758.82495,0.96992
1756.89642,0.96967
1754.96788,0.96935
1753.03934,0.96841
1751.11081,0.96657
1749.18227,0.96500
1747.25373,0.96470
1745.32520,0.96466
1743.39666,0.96429
1741.46813,0.96370
1739.53959,0.96319
1737.61105,0.96272
1735.68252,0.96176
1733.75398,0.96099
1731.82545,0.96198
1729.89691,0.96360
1727.96837,0.96493
1726.03984,0.96561
1724.11130,0.96560
1722.18276,0.96503
1720.25423,0.96360
1718.32569,0.96076
1716.39716,0.95859
1714.46862,0.95958
1712.54008,0.96100
1710.61155,0.96155
1708.68301,0.96124
1706.75448,0.96050
1704.82594,0.96021
1702.89740,0.96040
1700.96887,0.96023
1699.04033,0.95975
1697.11180,0.96033
1695.18326,0.96233
1693.25472,0.96397
1691.32619,0.96422
1689.39765,0.96366
1687.46911,0.96270
1685.54058,0.96123
1683.61204,0.96056
1681.68351,0.96193
1679.75497,0.96331
1677.82643,0.96395
1675.89790,0.96411
1673.96936,0.96431
1672.04083,0.96437
1670.11229,0.96461
1668.18375,0.96607
1666.25522,0.96723
1664.32668,0.96699
1662.39814,0.96617
1660.46961,0.96564
1658.54107,0.96443
1656.61254,0.96162
1654.68400,0.95388
1652.75546,0.93282
1650.82693,0.91559
1648.89839,0.90188
1646.96986,0.88004
1645.04132,0.86666
1643.11278,0.87055
1641.18425,0.88191
1639.25571,0.89534
1637.32718,0.90811
1635.39864,0.92062
1633.47010,0.92826
1631.54157,0.93185
1629.61303,0.93520
1627.68449,0.93965
1625.75596,0.94390
1623.82742,0.94714
1621.89889,0.94975
1619.97035,0.95067
1618.04181,0.94968
1616.11328,0.94826
1614.18474,0.94824
1612.25621,0.94853
1610.32767,0.94829
1608.39913,0.94773
1606.47060,0.94679
1604.54206,0.94522
1602.61352,0.94315
1600.68499,0.94122
1598.75645,0.93948
1596.82792,0.93685
1594.89938,0.93241
1592.97084,0.92552
1591.04231,0.91572
1589.11377,0.90344
1587.18524,0.89222
1585.25670,0.88716
1583.32816,0.89101
1581.39963,0.90155
1579.47109,0.91284
1577.54256,0.92340
1575.61402,0.93519
1573.68548,0.94329
1571.75695,0.94707
1569.82841,0.95021
1567.89987,0.95367
1565.97134,0.95573
1564.04280,0.95653
1562.11427,0.95614
1560.18573,0.95377
1558.25719,0.95030
1556.32866,0.94928
1554.40012,0.94799
1552.47159,0.94487
1550.54305,0.93988
1548.61451,0.93441
1546.68598,0.93058
1544.75744,0.92815
1542.82890,0.92639
1540.90037,0.92589
1538.97183,0.92625
1537.04330,0.92540
1535.11476,0.92018
1533.18622,0.90743
1531.25769,0.89081
1529.32915,0.87091
1527.40062,0.83831
1525.47208,0.79472
1523.54354,0.75418
1521.61501,0.71733
1519.68647,0.69954
1517.75793,0.71394
1515.82940,0.75254
1513.90086,0.79278
1511.97233,0.82456
1510.04379,0.84733
1508.11525,0.85721
1506.18672,0.84868
1504.25818,0.83421
1502.32965,0.81992
1500.40111,0.80404
1498.47257,0.78831
1496.54404,0.77254
1494.61550,0.75717
1492.68697,0.74179
1490.75843,0.71844
1488.82989,0.68351
1486.90136,0.65236
1484.97282,0.63066
1483.04428,0.61406
1481.11575,0.59879
1479.18721,0.58281
1477.25868,0.56493
1475.33014,0.54791
1473.40160,0.54711
1471.47307,0.57360
1469.54453,0.60535
1467.61600,0.63511
1465.68746,0.67085
1463.75892,0.70821
1461.83039,0.73239
1459.90185,0.74606
1457.97331,0.75698
1456.04478,0.76549
1454.11624,0.76882
1452.18771,0.76972
1450.25917,0.77051
1448.33063,0.77287
1446.40210,0.77702
1444.47356,0.78140
1442.54503,0.78467
1440.61649,0.78691
1438.68795,0.78952
1436.75942,0.79649
1434.83088,0.80824
1432.90235,0.81961
1430.97381,0.83062
1429.04527,0.83997
1427.11674,0.84449
1425.18820,0.84342
1423.25966,0.83828
1421.33113,0.83320
1419.40259,0.83162
1417.47406,0.83475
1415.54552,0.83906
1413.61698,0.84395
1411.68845,0.85191
1409.75991,0.86324
1407.83138,0.87442
1405.90284,0.88320
1403.97430,0.88802
1402.04577,0.88609
1400.11723,0.87487
1398.18869,0.85424
1396.26016,0.83062
1394.33162,0.81188
1392.40309,0.80624
1390.47455,0.81263
1388.54601,0.82754
1386.61748,0.84823
1384.68894,0.86454
1382.76041,0.87258
1380.83187,0.87612
1378.90333,0.87836
1376.97480,0.88068
1375.04626,0.88407
1373.11773,0.88940
1371.18919,0.89516
1369.26065,0.90035
1367.33212,0.90444
1365.40358,0.90629
1363.47504,0.90574
1361.54651,0.90361
1359.61797,0.90067
1357.68944,0.89638
1355.76090,0.89054
1353.83236,0.88405
1351.90383,0.87841
1349.97529,0.87480
1348.04676,0.87414
1346.11822,0.87659
1344.18968,0.88100
1342.26115,0.88589
1340.33261,0.89088
1338.40407,0.89629
1336.47554,0.90121
1334.54700,0.90491
1332.61847,0.90753
1330.68993,0.90914
1328.76139,0.90897
1326.83286,0.90472
1324.90432,0.89504
1322.97579,0.88435
1321.04725,0.88144
1319.11871,0.88972
1317.19018,0.90214
1315.26164,0.91056
1313.33311,0.91310
1311.40457,0.90993
1309.47603,0.90061
1307.54750,0.88535
1305.61896,0.86646
1303.69042,0.84684
1301.76189,0.82760
1299.83335,0.80901
1297.90482,0.79234
1295.97628,0.77959
1294.04774,0.77221
1292.11921,0.77045
1290.19067,0.77307
1288.26214,0.77802
1286.33360,0.78527
1284.40506,0.79709
1282.47653,0.81373
1280.54799,0.83203
1278.61945,0.84862
1276.69092,0.86206
1274.76238,0.87254
1272.83385,0.88089
1270.90531,0.88803
1268.97677,0.89461
1267.04824,0.90096
1265.11970,0.90709
1263.19117,0.91251
1261.26263,0.91665
1259.33409,0.91936
1257.40556,0.92101
1255.47702,0.92229
1253.54849,0.92383
1251.61995,0.92563
1249.69141,0.92733
1247.76288,0.92880
1245.83434,0.93015
1243.90580,0.93151
1241.97727,0.93272
1240.04873,0.93340
1238.12020,0.93327
1236.19166,0.93220
1234.26312,0.93025
1232.33459,0.92766
1230.40605,0.92488
1228.47752,0.92248
1226.54898,0.92095
1224.62044,0.92061
1222.69191,0.92150
1220.76337,0.92342
1218.83483,0.92603
1216.90630,0.92886
1214.97776,0.93147
1213.04923,0.93364
1211.12069,0.93549
1209.19215,0.93705
1207.26362,0.93817
1205.33508,0.93859
1203.40655,0.93792
1201.47801,0.93552
1199.54947,0.93066
1197.62094,0.92395
1195.69240,0.91870
1193.76387,0.91879
1191.83533,0.92444
1189.90679,0.93195
1187.97826,0.93798
1186.04972,0.94172
1184.12118,0.94374
1182.19265,0.94473
1180.26411,0.94517
1178.33558,0.94520
1176.40704,0.94462
1174.47850,0.94302
1172.54997,0.93983
1170.62143,0.93455
1168.69290,0.92708
1166.76436,0.91801
1164.83582,0.90917
1162.90729,0.90314
1160.97875,0.90150
1159.05021,0.90336
1157.12168,0.90573
1155.19314,0.90543
1153.26461,0.90084
1151.33607,0.89270
1149.40753,0.88423
1147.47900,0.87926
1145.55046,0.87875
1143.62193,0.88029
1141.69339,0.88056
1139.76485,0.87690
1137.83632,0.86696
1135.90778,0.84793
1133.97924,0.81723
1132.05071,0.77576
1130.12217,0.73080
1128.19364,0.69491
1126.26510,0.67998
1124.33656,0.69105
1122.40803,0.72358
1120.47949,0.76497
1118.55096,0.80205
1116.62242,0.82892
1114.69388,0.84607
1112.76535,0.85454
1110.83681,0.85359
1108.90828,0.84139
1106.97974,0.81635
1105.05120,0.77960
1103.12267,0.73651
1101.19413,0.69436
1099.26559,0.65847
1097.33706,0.63086
1095.40852,0.61174
1093.47999,0.60202
1091.55145,0.60522
1089.62291,0.62603
1087.69438,0.66439
1085.76584,0.71155
1083.83731,0.75429
1081.90877,0.78138
1079.98023,0.78748
1078.05170,0.77746
1076.12316,0.76628
1074.19462,0.76780
1072.26609,0.78363
1070.33755,0.80564
1068.40902,0.82575
1066.48048,0.84077
1064.55194,0.85124
1062.62341,0.85910
1060.69487,0.86610
1058.76634,0.87313
1056.83780,0.88027
1054.90926,0.88726
1052.98073,0.89386
1051.05219,0.89990
1049.12366,0.90527
1047.19512,0.90976
1045.26658,0.91329
1043.33805,0.91602
1041.40951,0.91806
1039.48097,0.91922
1037.55244,0.91901
1035.62390,0.91677
1033.69537,0.91134
1031.76683,0.90025
1029.83829,0.87926
1027.90976,0.84519
1025.98122,0.80338
1024.05269,0.77049
1022.12415,0.76270
1020.19561,0.78049
1018.26708,0.80942
1016.33854,0.83384
1014.41000,0.84463
1012.48147,0.83718
1010.55293,0.81217
1008.62440,0.78296
1006.69586,0.77104
1004.76732,0.78517
1002.83879,0.81408
1000.91025,0.84194
998.98172,0.86061
997.05318,0.86841
995.12464,0.86551
993.19611,0.85169
991.26757,0.82706
989.33904,0.79377
987.41050,0.75484
985.48196,0.71272
983.55343,0.67037
981.62489,0.63197
979.69635,0.60180
977.76782,0.58421
975.83928,0.58392
973.91075,0.60305
971.98221,0.63747
970.05367,0.67821
968.12514,0.71551
966.19660,0.74159
964.26807,0.75408
962.33953,0.75882
960.41099,0.76706
958.48246,0.78571
956.55392,0.81052
954.62538,0.83297
952.69685,0.84979
950.76831,0.86220
948.83978,0.87164
946.91124,0.87898
944.98270,0.88483
943.05417,0.88956
941.12563,0.89336
939.19710,0.89649
937.26856,0.89933
935.34002,0.90216
933.41149,0.90499
931.48295,0.90779
929.55442,0.91060
927.62588,0.91330
925.69734,0.91561
923.76881,0.91743
921.84027,0.91889
919.91173,0.92017
917.98320,0.92133
916.05466,0.92229
914.12613,0.92293
912.19759,0.92320
910.26905,0.92288
908.34052,0.92164
906.41198,0.91920
904.48345,0.91511
902.55491,0.90879
900.62637,0.89949
898.69784,0.88634
896.76930,0.86898
894.84076,0.84845
892.91223,0.82643
890.98369,0.80479
889.05516,0.78625
887.12662,0.77374
885.19808,0.77024
883.26955,0.77863
881.34101,0.79801
879.41248,0.82255
877.48394,0.84592
875.55540,0.86494
873.62687,0.87927
871.69833,0.88956
869.76980,0.89644
867.84126,0.90050
865.91272,0.90186
863.98419,0.89964
862.05565,0.89210
860.12711,0.87818
858.19858,0.86044
856.27004,0.84616
854.34151,0.84247
852.41297,0.84929
850.48443,0.85973
848.55590,0.86796
846.62736,0.87336
844.69883,0.87786
842.77029,0.88309
840.84175,0.88938
838.91322,0.89558
836.98468,0.90024
835.05614,0.90298
833.12761,0.90428
831.19907,0.90471
829.27054,0.90492
827.34200,0.90558
825.41346,0.90698
823.48493,0.90883
821.55639,0.91039
819.62786,0.91051
817.69932,0.90811
815.77078,0.90299
813.84225,0.89630
811.91371,0.88986
809.98517,0.88450
808.05664,0.87966
806.12810,0.87476
804.19957,0.87057
802.27103,0.86837
800.34249,0.86892
798.41396,0.87327
796.48542,0.88132
794.55689,0.89016
792.62835,0.89654
790.69981,0.89922
788.77128,0.89836
786.84274,0.89522
784.91421,0.89310
782.98567,0.89570
781.05713,0.90355
779.12860,0.91327
777.20006,0.92041
775.27152,0.92159
773.34299,0.91326
771.41445,0.89253
769.48592,0.86403
767.55738,0.84233
765.62884,0.83987
763.70031,0.85319
761.77177,0.86732
759.84324,0.87411
757.91470,0.87674
755.98616,0.87455
754.05763,0.86502
752.12909,0.86034
750.20055,0.87266
748.27202,0.89333
746.34348,0.90741
744.41495,0.91082
742.48641,0.90805
740.55787,0.90633
738.62934,0.90989
736.70080,0.91689
734.77227,0.92310
732.84373,0.92486
730.91519,0.91877
728.98666,0.90381
727.05812,0.88537
725.12959,0.87480
723.20105,0.87944
721.27251,0.89522
719.34398,0.91245
717.41544,0.92447
715.48690,0.93106
713.55837,0.93465
711.62983,0.93608
709.70130,0.93476
707.77276,0.93012
705.84422,0.92289
703.91569,0.91635
701.98715,0.91361
700.05862,0.91418
698.13008,0.91635
696.20154,0.91961
694.27301,0.92317
692.34447,0.92570
690.41593,0.92618
688.48740,0.92418
686.55886,0.91996
684.63033,0.91440
682.70179,0.90864
680.77325,0.90390
678.84472,0.90068
676.91618,0.89796
674.98765,0.89445
673.05911,0.89012
671.13057,0.88602
669.20204,0.88677
667.27350,0.89846
665.34497,0.90848
663.41643,0.91172
661.48789,0.91027
659.55936,0.90424
657.63082,0.89213
655.70228,0.87169
653.77375,0.84558
651.84521,0.82591
649.91668,0.82646
647.98814,0.84788
646.05960,0.87650
644.13107,0.89774
642.20253,0.90388
640.27400,0.89485
638.34546,0.87768
636.41692,0.86140
634.48839,0.85372
632.55985,0.85905
630.63131,0.87230
628.70278,0.88326
626.77424,0.88859
624.84571,0.89141
622.91717,0.89547
620.98863,0.90316
619.06010,0.91373
617.13156,0.92417
615.20303,0.93218
613.27449,0.93736
611.34595,0.94050
609.41742,0.94253
607.48888,0.94388
605.56035,0.94465
603.63181,0.94522
601.70327,0.94573
599.77474,0.94584
597.84620,0.94509
595.91766,0.94258
593.98913,0.93566
592.06059,0.92176
590.13206,0.90573
588.20352,0.89819
586.27498,0.90308
584.34645,0.91537
582.41791,0.92741
580.48938,0.93525
578.56084,0.93877
576.63230,0.93899
574.70377,0.93685
572.77523,0.93343
570.84669,0.93015
568.91816,0.92906
566.98962,0.93127
565.06109,0.93562
563.13255,0.94002
561.20401,0.94295
559.27548,0.94385
557.34694,0.94231
555.41841,0.93697
553.48987,0.92520
551.56133,0.90395
549.63280,0.87232
547.70426,0.83706
545.77573,0.81334
543.84719,0.81323
541.91865,0.83290
539.99012,0.85516
538.06158,0.86038
536.13304,0.83737
534.20451,0.79296
532.27597,0.75221
530.34744,0.74126
528.41890,0.76369
526.49036,0.79837
524.56183,0.82011
522.63329,0.82540
520.70476,0.82699
518.77622,0.83014
516.84768,0.82966
514.91915,0.82110
512.99061,0.80741
511.06207,0.79651
509.13354,0.79642
507.20500,0.80868
505.27647,0.82774
503.34793,0.84925
501.41939,0.87212
499.49086,0.89160
497.56232,0.90506
495.63379,0.91421
493.70525,0.92055
491.77671,0.92498
489.84818,0.92807
487.91964,0.93030
485.99110,0.93132
484.06257,0.92966
482.13403,0.92263
480.20550,0.90667
478.27696,0.88079
476.34842,0.85395
474.41989,0.84179
472.49135,0.85236
470.56282,0.87488
468.63428,0.89359
466.70574,0.90533
464.77721,0.91022
462.84867,0.90902
460.92014,0.90342
458.99160,0.89529
457.06306,0.88947
455.13453,0.89247
453.20599,0.90262
451.27745,0.91230
449.34892,0.91413
447.42038,0.90882
445.49185,0.90393
443.56331,0.90687
441.63477,0.91712
439.70624,0.92670
437.77770,0.93200
435.84917,0.93408
433.92063,0.93253
431.99209,0.92575
430.06356,0.91249
428.13502,0.89314
426.20648,0.86951
424.27795,0.84742
422.34941,0.83556
420.42088,0.83379
418.49234,0.83846
416.56380,0.84523
414.63527,0.85215
412.70673,0.86113
410.77820,0.87043
408.84966,0.87665
406.92112,0.87930
404.99259,0.87864
403.06405,0.87620
401.13552,0.87466
399.20698,0.87417
