3997.85540,0.98404
3995.92686,0.98419
3993.99833,0.98432
3992.06979,0.98431
3990.14125,0.98412
3988.21272,0.98383
3986.28418,0.98361
3984.35565,0.98355
3982.42711,0.98359
3980.49857,0.98359
3978.57004,0.98359
3976.64150,0.98380
3974.71297,0.98423
3972.78443,0.98449
3970.85589,0.98441
3968.92736,0.98419
3966.99882,0.98409
3965.07029,0.98423
3963.14175,0.98460
3961.21321,0.98483
3959.28468,0.98480
3957.35614,0.98481
3955.42760,0.98486
3953.49907,0.98500
3951.57053,0.98544
3949.64200,0.98589
3947.71346,0.98580
3945.78492,0.98561
3943.85639,0.98594
3941.92785,0.98613
3939.99932,0.98564
3938.07078,0.98519
3936.14224,0.98528
3934.21371,0.98601
3932.28517,0.98707
3930.35663,0.98740
3928.42810,0.98696
3926.49956,0.98696
3924.57103,0.98736
3922.64249,0.98719
3920.71395,0.98699
3918.78542,0.98736
3916.85688,0.98731
3914.92835,0.98629
3912.99981,0.98535
3911.07127,0.98504
3909.14274,0.98532
3907.21420,0.98653
3905.28566,0.98932
3903.35713,0.99225
3901.42859,0.99243
3899.50006,0.99071
3897.57152,0.98863
3895.64298,0.98763
3893.71445,0.98834
3891.78591,0.98956
3889.85738,0.98899
3887.92884,0.98835
3886.00030,0.98916
3884.07177,0.99021
3882.14323,0.99029
3880.21470,0.98953
3878.28616,0.98832
3876.35762,0.98804
3874.42909,0.98922
3872.50055,0.99103
3870.57201,0.99214
3868.64348,0.99188
3866.71494,0.99180
3864.78641,0.99288
3862.85787,0.99272
3860.92933,0.99075
3859.00080,0.98993
3857.07226,0.99132
3855.14373,0.99521
3853.21519,0.99893
3851.28665,0.99520
3849.35812,0.99105
3847.42958,0.98913
3845.50104,0.98929
3843.57251,0.99119
3841.64397,0.99386
3839.71544,0.99670
3837.78690,0.99778
3835.85836,0.99567
3833.92983,0.99327
3832.00129,0.99151
3830.07276,0.99041
3828.14422,0.99032
3826.21568,0.99100
3824.28715,0.99191
3822.35861,0.99383
3820.43008,0.99600
3818.50154,0.99537
3816.57300,0.99344
3814.64447,0.99079
3812.71593,0.98872
3810.78739,0.98807
3808.85886,0.98907
3806.93032,0.99123
3805.00179,0.99258
3803.07325,0.99373
3801.14471,0.99493
3799.21618,0.99400
3797.28764,0.99203
3795.35911,0.98957
3793.43057,0.98764
3791.50203,0.98688
3789.57350,0.98691
3787.64496,0.98740
3785.71642,0.98811
3783.78789,0.98834
3781.85935,0.98843
3779.93082,0.98894
3778.00228,0.98861
3776.07374,0.98743
3774.14521,0.98701
3772.21667,0.98793
3770.28814,0.98964
3768.35960,0.99047
3766.43106,0.99024
3764.50253,0.98969
3762.57399,0.98947
3760.64546,0.99044
3758.71692,0.99212
3756.78838,0.99287
3754.85985,0.99365
3752.93131,0.99630
3751.00277,1.00114
3749.07424,1.00200
3747.14570,1.00032
3745.21717,0.99889
3743.28863,0.99667
3741.36009,0.99495
3739.43156,0.99476
3737.50302,0.99656
3735.57449,0.99943
3733.64595,0.99833
3731.71741,0.99413
3729.78888,0.99137
3727.86034,0.99086
3725.93180,0.99187
3724.00327,0.99246
3722.07473,0.99171
3720.14620,0.99057
3718.21766,0.98973
3716.28912,0.98964
3714.36059,0.99085
3712.43205,0.99397
3710.50352,0.99541
3708.57498,0.99213
3706.64644,0.98945
3704.71791,0.98856
3702.78937,0.98880
3700.86084,0.98861
3698.93230,0.98765
3697.00376,0.98720
3695.07523,0.98766
3693.14669,0.98925
3691.21815,0.99270
3689.28962,0.99515
3687.36108,0.99189
3685.43255,0.98874
3683.50401,0.98744
3681.57547,0.98767
3679.64694,0.98931
3677.71840,0.99186
3675.78987,0.99394
3673.86133,0.99366
3671.93279,0.99361
3670.00426,0.99330
3668.07572,0.98993
3666.14718,0.98682
3664.21865,0.98534
3662.29011,0.98505
3660.36158,0.98556
3658.43304,0.98676
3656.50450,0.98810
3654.57597,0.98836
3652.64743,0.98878
3650.71890,0.99200
3648.79036,0.99623
3646.86182,0.99207
3644.93329,0.98826
3643.00475,0.98655
3641.07622,0.98579
3639.14768,0.98552
3637.21914,0.98560
3635.29061,0.98602
3633.36207,0.98683
3631.43353,0.98823
3629.50500,0.99033
3627.57646,0.98975
3625.64793,0.98717
3623.71939,0.98610
3621.79085,0.98710
3619.86232,0.98964
3617.93378,0.99069
3616.00525,0.99021
3614.07671,0.99020
3612.14817,0.98995
3610.21964,0.98951
3608.29110,0.98897
3606.36256,0.98742
3604.43403,0.98607
3602.50549,0.98614
3600.57696,0.98719
3598.64842,0.98771
3596.71988,0.98761
3594.79135,0.98732
3592.86281,0.98663
3590.93428,0.98644
3589.00574,0.98757
3587.07720,0.98845
3585.14867,0.98702
3583.22013,0.98559
3581.29160,0.98498
3579.36306,0.98488
3577.43452,0.98490
3575.50599,0.98470
3573.57745,0.98432
3571.64891,0.98429
3569.72038,0.98531
3567.79184,0.98760
3565.86331,0.98856
3563.93477,0.98700
3562.00623,0.98545
3560.07770,0.98439
3558.14916,0.98365
3556.22063,0.98335
3554.29209,0.98365
3552.36355,0.98420
3550.43502,0.98440
3548.50648,0.98467
3546.57794,0.98534
3544.64941,0.98538
3542.72087,0.98437
3540.79234,0.98346
3538.86380,0.98320
3536.93526,0.98331
3535.00673,0.98327
3533.07819,0.98330
3531.14966,0.98393
3529.22112,0.98500
3527.29258,0.98558
3525.36405,0.98545
3523.43551,0.98499
3521.50697,0.98434
3519.57844,0.98378
3517.64990,0.98342
3515.72137,0.98323
3513.79283,0.98344
3511.86429,0.98400
3509.93576,0.98445
3508.00722,0.98454
3506.07869,0.98484
3504.15015,0.98553
3502.22161,0.98563
3500.29308,0.98490
3498.36454,0.98449
3496.43601,0.98458
3494.50747,0.98457
3492.57893,0.98435
3490.65040,0.98438
3488.72186,0.98470
3486.79332,0.98487
3484.86479,0.98482
3482.93625,0.98488
3481.00772,0.98490
3479.07918,0.98471
3477.15064,0.98461
3475.22211,0.98469
3473.29357,0.98472
3471.36504,0.98469
3469.43650,0.98471
3467.50796,0.98484
3465.57943,0.98503
3463.65089,0.98523
3461.72235,0.98535
3459.79382,0.98527
3457.86528,0.98507
3455.93675,0.98493
3454.00821,0.98486
3452.07967,0.98489
3450.15114,0.98517
3448.22260,0.98563
3446.29407,0.98580
3444.36553,0.98561
3442.43699,0.98540
3440.50846,0.98514
3438.57992,0.98492
3436.65139,0.98483
3434.72285,0.98480
3432.79431,0.98482
3430.86578,0.98492
3428.93724,0.98493
3427.00870,0.98479
3425.08017,0.98469
3423.15163,0.98479
3421.22310,0.98488
3419.29456,0.98461
3417.36602,0.98422
3415.43749,0.98404
3413.50895,0.98401
3411.58042,0.98396
3409.65188,0.98384
3407.72334,0.98357
3405.79481,0.98322
3403.86627,0.98296
3401.93773,0.98271
3400.00920,0.98242
3398.08066,0.98211
3396.15213,0.98169
3394.22359,0.98119
3392.29505,0.98056
3390.36652,0.97973
3388.43798,0.97885
3386.50945,0.97801
3384.58091,0.97706
3382.65237,0.97594
3380.72384,0.97481
3378.79530,0.97367
3376.86677,0.97244
3374.93823,0.97111
3373.00969,0.96966
3371.08116,0.96809
3369.15262,0.96653
3367.22408,0.96497
3365.29555,0.96325
3363.36701,0.96137
3361.43848,0.95940
3359.50994,0.95741
3357.58140,0.95547
3355.65287,0.95353
3353.72433,0.95143
3351.79580,0.94930
3349.86726,0.94729
3347.93872,0.94538
3346.01019,0.94348
3344.08165,0.94162
3342.15311,0.93981
3340.22458,0.93806
3338.29604,0.93651
3336.36751,0.93513
3334.43897,0.93371
3332.51043,0.93225
3330.58190,0.93088
3328.65336,0.92965
3326.72483,0.92863
3324.79629,0.92780
3322.86775,0.92698
3320.93922,0.92612
3319.01068,0.92534
3317.08215,0.92465
3315.15361,0.92398
3313.22507,0.92334
3311.29654,0.92279
3309.36800,0.92232
3307.43946,0.92176
3305.51093,0.92107
3303.58239,0.92036
3301.65386,0.91970
3299.72532,0.91916
3297.79678,0.91868
3295.86825,0.91817
3293.93971,0.91765
3292.01118,0.91707
3290.08264,0.91637
3288.15410,0.91560
3286.22557,0.91486
3284.29703,0.91418
3282.36849,0.91352
3280.43996,0.91285
3278.51142,0.91229
3276.58289,0.91186
3274.65435,0.91131
3272.72581,0.91058
3270.79728,0.90998
3268.86874,0.90959
3266.94021,0.90919
3265.01167,0.90872
3263.08313,0.90835
3261.15460,0.90822
3259.22606,0.90820
3257.29753,0.90822
3255.36899,0.90831
3253.44045,0.90841
3251.51192,0.90847
3249.58338,0.90863
3247.65484,0.90901
3245.72631,0.90956
3243.79777,0.91007
3241.86924,0.91057
3239.94070,0.91123
3238.01216,0.91209
3236.08363,0.91307
3234.15509,0.91410
3232.22656,0.91507
3230.29802,0.91596
3228.36948,0.91685
3226.44095,0.91787
3224.51241,0.91901
3222.58387,0.92027
3220.65534,0.92163
3218.72680,0.92280
3216.79827,0.92384
3214.86973,0.92497
3212.94119,0.92590
3211.01266,0.92666
3209.08412,0.92774
3207.15559,0.92901
3205.22705,0.92997
3203.29851,0.93072
3201.36998,0.93150
3199.44144,0.93242
3197.51290,0.93357
3195.58437,0.93491
3193.65583,0.93645
3191.72730,0.93810
3189.79876,0.93965
3187.87022,0.94096
3185.94169,0.94218
3184.01315,0.94339
3182.08462,0.94449
3180.15608,0.94554
3178.22754,0.94658
3176.29901,0.94735
3174.37047,0.94792
3172.44194,0.94858
3170.51340,0.94938
3168.58486,0.95015
3166.65633,0.95080
3164.72779,0.95125
3162.79925,0.95156
3160.87072,0.95192
3158.94218,0.95246
3157.01365,0.95326
3155.08511,0.95424
3153.15657,0.95504
3151.22804,0.95536
3149.29950,0.95533
3147.37097,0.95538
3145.44243,0.95577
3143.51389,0.95641
3141.58536,0.95710
3139.65682,0.95767
3137.72828,0.95804
3135.79975,0.95831
3133.87121,0.95859
3131.94268,0.95878
3130.01414,0.95892
3128.08560,0.95911
3126.15707,0.95926
3124.22853,0.95937
3122.30000,0.95955
3120.37146,0.95965
3118.44292,0.95957
3116.51439,0.95942
3114.58585,0.95924
3112.65732,0.95907
3110.72878,0.95894
3108.80024,0.95872
3106.87171,0.95839
3104.94317,0.95817
3103.01463,0.95820
3101.08610,0.95817
3099.15756,0.95777
3097.22903,0.95716
3095.30049,0.95644
3093.37195,0.95567
3091.44342,0.95495
3089.51488,0.95422
3087.58635,0.95341
3085.65781,0.95262
3083.72927,0.95195
3081.80074,0.95143
3079.87220,0.95094
3077.94366,0.95027
3076.01513,0.94942
3074.08659,0.94854
3072.15806,0.94772
3070.22952,0.94700
3068.30098,0.94641
3066.37245,0.94574
3064.44391,0.94478
3062.51538,0.94375
3060.58684,0.94306
3058.65830,0.94292
3056.72977,0.94314
3054.80123,0.94345
3052.87270,0.94387
3050.94416,0.94442
3049.01562,0.94490
3047.08709,0.94531
3045.15855,0.94568
3043.23001,0.94581
3041.30148,0.94554
3039.37294,0.94495
3037.44441,0.94458
3035.51587,0.94472
3033.58733,0.94487
3031.65880,0.94444
3029.73026,0.94355
3027.80173,0.94283
3025.87319,0.94273
3023.94465,0.94283
3022.01612,0.94284
3020.08758,0.94299
3018.15904,0.94321
3016.23051,0.94338
3014.30197,0.94355
3012.37344,0.94351
3010.44490,0.94298
3008.51636,0.94205
3006.58783,0.94115
3004.65929,0.94043
3002.73076,0.93964
3000.80222,0.93897
2998.87368,0.93863
2996.94515,0.93818
2995.01661,0.93745
2993.08808,0.93660
2991.15954,0.93541
2989.23100,0.93400
2987.30247,0.93298
2985.37393,0.93277
2983.44539,0.93334
2981.51686,0.93408
2979.58832,0.93415
2977.65979,0.93348
2975.73125,0.93266
2973.80271,0.93153
2971.87418,0.92968
2969.94564,0.92764
2968.01711,0.92601
2966.08857,0.92481
2964.16003,0.92385
2962.23150,0.92264
2960.30296,0.92101
2958.37442,0.91954
2956.44589,0.91879
2954.51735,0.91862
2952.58882,0.91834
2950.66028,0.91752
2948.73174,0.91655
2946.80321,0.91559
2944.87467,0.91419
2942.94614,0.91207
2941.01760,0.90937
2939.08906,0.90663
2937.16053,0.90438
2935.23199,0.90270
2933.30346,0.90162
2931.37492,0.90110
2929.44638,0.90071
2927.51785,0.90015
2925.58931,0.89980
2923.66077,0.90009
2921.73224,0.90107
2919.80370,0.90255
2917.87517,0.90410
2915.94663,0.90532
2914.01809,0.90620
2912.08956,0.90669
2910.16102,0.90670
2908.23249,0.90644
2906.30395,0.90622
2904.37541,0.90605
2902.44688,0.90577
2900.51834,0.90546
2898.58980,0.90540
2896.66127,0.90547
2894.73273,0.90533
2892.80420,0.90502
2890.87566,0.90482
2888.94712,0.90487
2887.01859,0.90512
2885.09005,0.90557
2883.16152,0.90615
2881.23298,0.90678
2879.30444,0.90750
2877.37591,0.90848
2875.44737,0.90966
2873.51883,0.91066
2871.59030,0.91117
2869.66176,0.91129
2867.73323,0.91133
2865.80469,0.91115
2863.87615,0.91039
2861.94762,0.90916
2860.01908,0.90756
2858.09055,0.90563
2856.16201,0.90390
2854.23347,0.90307
2852.30494,0.90351
2850.37640,0.90533
2848.44787,0.90820
2846.51933,0.91141
2844.59079,0.91468
2842.66226,0.91813
2840.73372,0.92160
2838.80518,0.92462
2836.87665,0.92674
2834.94811,0.92797
2833.01958,0.92848
2831.09104,0.92827
2829.16250,0.92731
2827.23397,0.92570
2825.30543,0.92349
2823.37690,0.92063
2821.44836,0.91722
2819.51982,0.91362
2817.59129,0.91026
2815.66275,0.90745
2813.73421,0.90531
2811.80568,0.90390
2809.87714,0.90327
2807.94861,0.90343
2806.02007,0.90447
2804.09153,0.90643
2802.16300,0.90923
2800.23446,0.91267
2798.30593,0.91638
2796.37739,0.91999
2794.44885,0.92337
2792.52032,0.92668
2790.59178,0.92993
2788.66325,0.93282
2786.73471,0.93519
2784.80617,0.93726
2782.87764,0.93921
2780.94910,0.94100
2779.02056,0.94261
2777.09203,0.94420
2775.16349,0.94567
2773.23496,0.94675
2771.30642,0.94748
2769.37788,0.94824
2767.44935,0.94917
2765.52081,0.95012
2763.59228,0.95103
2761.66374,0.95198
2759.73520,0.95295
2757.80667,0.95380
2755.87813,0.95450
2753.94959,0.95518
2752.02106,0.95594
2750.09252,0.95672
2748.16399,0.95735
2746.23545,0.95775
2744.30691,0.95804
2742.37838,0.95839
2740.44984,0.95884
2738.52131,0.95933
2736.59277,0.95971
2734.66423,0.95989
2732.73570,0.96003
2730.80716,0.96028
2728.87863,0.96074
2726.95009,0.96129
2725.02155,0.96161
2723.09302,0.96162
2721.16448,0.96148
2719.23594,0.96138
2717.30741,0.96142
2715.37887,0.96153
2713.45034,0.96169
2711.52180,0.96196
2709.59326,0.96230
2707.66473,0.96257
2705.73619,0.96276
2703.80766,0.96297
2701.87912,0.96324
2699.95058,0.96351
2698.02205,0.96375
2696.09351,0.96390
2694.16497,0.96406
2692.23644,0.96427
2690.30790,0.96446
2688.37937,0.96458
2686.45083,0.96472
2684.52229,0.96502
2682.59376,0.96558
2680.66522,0.96618
2678.73669,0.96651
2676.80815,0.96651
2674.87961,0.96637
2672.95108,0.96620
2671.02254,0.96602
2669.09401,0.96590
2667.16547,0.96590
2665.23693,0.96586
2663.30840,0.96577
2661.37986,0.96572
2659.45132,0.96571
2657.52279,0.96568
2655.59425,0.96566
2653.66572,0.96570
2651.73718,0.96576
2649.80864,0.96586
2647.88011,0.96601
2645.95157,0.96624
2644.02304,0.96663
2642.09450,0.96717
2640.16596,0.96772
2638.23743,0.96819
2636.30889,0.96860
2634.38035,0.96899
2632.45182,0.96931
2630.52328,0.96968
2628.59475,0.97020
2626.66621,0.97062
2624.73767,0.97078
2622.80914,0.97084
2620.88060,0.97097
2618.95207,0.97111
2617.02353,0.97122
2615.09499,0.97132
2613.16646,0.97144
2611.23792,0.97162
2609.30939,0.97187
2607.38085,0.97217
2605.45231,0.97242
2603.52378,0.97254
2601.59524,0.97259
2599.66670,0.97274
2597.73817,0.97292
2595.80963,0.97298
2593.88110,0.97293
2591.95256,0.97282
2590.02402,0.97266
2588.09549,0.97256
2586.16695,0.97261
2584.23842,0.97279
2582.30988,0.97304
2580.38134,0.97340
2578.45281,0.97389
2576.52427,0.97434
2574.59573,0.97457
2572.66720,0.97472
2570.73866,0.97493
2568.81013,0.97522
2566.88159,0.97551
2564.95305,0.97571
2563.02452,0.97584
2561.09598,0.97600
2559.16745,0.97616
2557.23891,0.97626
2555.31037,0.97637
2553.38184,0.97653
2551.45330,0.97667
2549.52476,0.97679
2547.59623,0.97690
2545.66769,0.97697
2543.73916,0.97697
2541.81062,0.97699
2539.88208,0.97709
2537.95355,0.97720
2536.02501,0.97721
2534.09648,0.97711
2532.16794,0.97695
2530.23940,0.97686
2528.31087,0.97691
2526.38233,0.97698
2524.45380,0.97702
2522.52526,0.97721
2520.59672,0.97746
2518.66819,0.97744
2516.73965,0.97722
2514.81111,0.97715
2512.88258,0.97722
2510.95404,0.97720
2509.02551,0.97702
2507.09697,0.97688
2505.16843,0.97687
2503.23990,0.97695
2501.31136,0.97709
2499.38283,0.97725
2497.45429,0.97739
2495.52575,0.97753
2493.59722,0.97758
2491.66868,0.97751
2489.74014,0.97743
2487.81161,0.97735
2485.88307,0.97721
2483.95454,0.97698
2482.02600,0.97682
2480.09746,0.97685
2478.16893,0.97699
2476.24039,0.97702
2474.31186,0.97687
2472.38332,0.97672
2470.45478,0.97675
2468.52625,0.97690
2466.59771,0.97713
2464.66918,0.97734
2462.74064,0.97745
2460.81210,0.97752
2458.88357,0.97766
2456.95503,0.97788
2455.02649,0.97806
2453.09796,0.97813
2451.16942,0.97817
2449.24089,0.97826
2447.31235,0.97834
2445.38381,0.97842
2443.45528,0.97855
2441.52674,0.97868
2439.59821,0.97881
2437.66967,0.97906
2435.74113,0.97938
2433.81260,0.97963
2431.88406,0.97982
2429.95552,0.98007
2428.02699,0.98033
2426.09845,0.98053
2424.16992,0.98060
2422.24138,0.98056
2420.31284,0.98042
2418.38431,0.98022
2416.45577,0.98009
2414.52724,0.98002
2412.59870,0.97993
2410.67016,0.97984
2408.74163,0.97983
2406.81309,0.97990
2404.88456,0.97997
2402.95602,0.98001
2401.02748,0.98003
2399.09895,0.98007
2397.17041,0.98011
2395.24187,0.98005
2393.31334,0.97997
2391.38480,0.97995
2389.45627,0.97990
2387.52773,0.97969
2385.59919,0.97931
2383.67066,0.97885
2381.74212,0.97845
2379.81359,0.97816
2377.88505,0.97797
2375.95651,0.97786
2374.02798,0.97771
2372.09944,0.97747
2370.17090,0.97713
2368.24237,0.97678
2366.31383,0.97672
2364.38530,0.97671
2362.45676,0.97620
2360.52822,0.97544
2358.59969,0.97495
2356.67115,0.97499
2354.74262,0.97547
2352.81408,0.97607
2350.88554,0.97666
2348.95701,0.97704
2347.02847,0.97694
2345.09994,0.97651
2343.17140,0.97644
2341.24286,0.97678
2339.31433,0.97693
2337.38579,0.97692
2335.45725,0.97695
2333.52872,0.97699
2331.60018,0.97678
2329.67165,0.97638
2327.74311,0.97610
2325.81457,0.97587
2323.88604,0.97558
2321.95750,0.97550
2320.02897,0.97575
2318.10043,0.97604
2316.17189,0.97609
2314.24336,0.97585
2312.31482,0.97542
2310.38628,0.97499
2308.45775,0.97481
2306.52921,0.97500
2304.60068,0.97536
2302.67214,0.97572
2300.74360,0.97611
2298.81507,0.97668
2296.88653,0.97744
2294.95800,0.97831
2293.02946,0.97918
2291.10092,0.97999
2289.17239,0.98071
2287.24385,0.98133
2285.31532,0.98187
2283.38678,0.98240
2281.45824,0.98291
2279.52971,0.98334
2277.60117,0.98370
2275.67263,0.98407
2273.74410,0.98439
2271.81556,0.98447
2269.88703,0.98439
2267.95849,0.98440
2266.02995,0.98455
2264.10142,0.98472
2262.17288,0.98492
2260.24435,0.98521
2258.31581,0.98536
2256.38727,0.98522
2254.45874,0.98514
2252.53020,0.98534
2250.60166,0.98571
2248.67313,0.98617
2246.74459,0.98651
2244.81606,0.98660
2242.88752,0.98665
2240.95898,0.98678
2239.03045,0.98692
2237.10191,0.98710
2235.17338,0.98736
2233.24484,0.98761
2231.31630,0.98768
2229.38777,0.98755
2227.45923,0.98750
2225.53070,0.98771
2223.60216,0.98786
2221.67362,0.98764
2219.74509,0.98745
2217.81655,0.98767
2215.88801,0.98798
2213.95948,0.98814
2212.03094,0.98810
2210.10241,0.98796
2208.17387,0.98782
2206.24533,0.98766
2204.31680,0.98758
2202.38826,0.98773
2200.45973,0.98807
2198.53119,0.98837
2196.60265,0.98839
2194.67412,0.98809
2192.74558,0.98779
2190.81704,0.98793
2188.88851,0.98846
2186.95997,0.98888
2185.03144,0.98892
2183.10290,0.98891
2181.17436,0.98905
2179.24583,0.98912
2177.31729,0.98904
2175.38876,0.98878
2173.46022,0.98855
2171.53168,0.98857
2169.60315,0.98883
2167.67461,0.98919
2165.74607,0.98952
2163.81754,0.98963
2161.88900,0.98955
2159.96047,0.98979
2158.03193,0.99036
2156.10339,0.99068
2154.17486,0.99056
2152.24632,0.99010
2150.31779,0.98964
2148.38925,0.98935
2146.46071,0.98902
2144.53218,0.98848
2142.60364,0.98812
2140.67511,0.98798
2138.74657,0.98788
2136.81803,0.98773
2134.88950,0.98739
2132.96096,0.98702
2131.03242,0.98691
2129.10389,0.98701
2127.17535,0.98703
2125.24682,0.98699
2123.31828,0.98700
2121.38974,0.98717
2119.46121,0.98741
2117.53267,0.98746
2115.60414,0.98747
2113.67560,0.98751
2111.74706,0.98741
2109.81853,0.98724
2107.88999,0.98721
2105.96145,0.98740
2104.03292,0.98756
2102.10438,0.98753
2100.17585,0.98749
2098.24731,0.98745
2096.31877,0.98740
2094.39024,0.98761
2092.46170,0.98814
2090.53317,0.98860
2088.60463,0.98875
2086.67609,0.98868
2084.74756,0.98859
2082.81902,0.98861
2080.89049,0.98880
2078.96195,0.98903
2077.03341,0.98902
2075.10488,0.98880
2073.17634,0.98862
2071.24780,0.98859
2069.31927,0.98871
2067.39073,0.98893
2065.46220,0.98920
2063.53366,0.98942
2061.60512,0.98960
2059.67659,0.98966
2057.74805,0.98960
2055.81952,0.98975
2053.89098,0.99016
2051.96244,0.99048
2050.03391,0.99062
2048.10537,0.99081
2046.17683,0.99094
2044.24830,0.99095
2042.31976,0.99104
2040.39123,0.99112
2038.46269,0.99117
2036.53415,0.99132
2034.60562,0.99155
2032.67708,0.99189
2030.74855,0.99212
2028.82001,0.99209
2026.89147,0.99207
2024.96294,0.99240
2023.03440,0.99311
2021.10587,0.99384
2019.17733,0.99440
2017.24879,0.99462
2015.32026,0.99431
2013.39172,0.99393
2011.46318,0.99403
2009.53465,0.99444
2007.60611,0.99458
2005.67758,0.99440
2003.74904,0.99430
2001.82050,0.99451
1999.89197,0.99473
1997.96343,0.99487
1996.03490,0.99538
1994.10636,0.99623
1992.17782,0.99688
1990.24929,0.99687
1988.32075,0.99663
1986.39221,0.99646
1984.46368,0.99640
1982.53514,0.99662
1980.60661,0.99677
1978.67807,0.99649
1976.74953,0.99593
1974.82100,0.99528
1972.89246,0.99467
1970.96393,0.99471
1969.03539,0.99557
1967.10685,0.99586
1965.17832,0.99475
1963.24978,0.99354
1961.32125,0.99294
1959.39271,0.99258
1957.46417,0.99237
1955.53564,0.99234
1953.60710,0.99224
1951.67856,0.99217
1949.75003,0.99216
1947.82149,0.99235
1945.89296,0.99299
1943.96442,0.99364
1942.03588,0.99291
1940.10735,0.99091
1938.17881,0.98941
1936.25028,0.98867
1934.32174,0.98826
1932.39320,0.98796
1930.46467,0.98764
1928.53613,0.98741
1926.60759,0.98751
1924.67906,0.98825
1922.75052,0.98905
1920.82199,0.98930
1918.89345,0.98947
1916.96491,0.98930
1915.03638,0.98862
1913.10784,0.98833
1911.17931,0.98876
1909.25077,0.98909
1907.32223,0.98876
1905.39370,0.98828
1903.46516,0.98800
1901.53663,0.98787
1899.60809,0.98783
1897.67955,0.98810
1895.75102,0.98849
1893.82248,0.98865
1891.89394,0.98892
1889.96541,0.98928
1888.03687,0.98901
1886.10834,0.98841
1884.17980,0.98814
1882.25126,0.98795
1880.32273,0.98772
1878.39419,0.98768
1876.46566,0.98783
1874.53712,0.98812
1872.60858,0.98892
1870.68005,0.99075
1868.75151,0.99249
1866.82297,0.99154
1864.89444,0.98946
1862.96590,0.98813
1861.03737,0.98756
1859.10883,0.98732
1857.18029,0.98714
1855.25176,0.98701
1853.32322,0.98697
1851.39469,0.98701
1849.46615,0.98742
1847.53761,0.98851
1845.60908,0.98997
1843.68054,0.99002
1841.75200,0.98838
1839.82347,0.98730
1837.89493,0.98709
1835.96640,0.98695
1834.03786,0.98689
1832.10932,0.98781
1830.18079,0.98950
1828.25225,0.98985
1826.32372,0.98919
1824.39518,0.98860
1822.46664,0.98777
1820.53811,0.98710
1818.60957,0.98688
1816.68104,0.98686
1814.75250,0.98702
1812.82396,0.98777
1810.89543,0.98854
1808.96689,0.98826
1807.03835,0.98757
1805.10982,0.98750
1803.18128,0.98843
1801.25275,0.98983
1799.32421,0.99027
1797.39567,0.99003
1795.46714,0.99047
1793.53860,0.99168
1791.61007,0.99122
1789.68153,0.98857
1787.75299,0.98685
1785.82446,0.98647
1783.89592,0.98659
1781.96738,0.98676
1780.03885,0.98671
1778.11031,0.98641
1776.18178,0.98692
1774.25324,0.98889
1772.32470,0.99067
1770.39617,0.98885
1768.46763,0.98573
1766.53910,0.98358
1764.61056,0.98286
1762.68202,0.98310
1760.75349,0.98277
1758.82495,0.98169
1756.89642,0.98039
1754.96788,0.97908
1753.03934,0.97883
1751.11081,0.98019
1749.18227,0.98134
1747.25373,0.97979
1745.32520,0.97760
1743.39666,0.97628
1741.46813,0.97579
1739.53959,0.97553
1737.61105,0.97537
1735.68252,0.97626
1733.75398,0.97768
1731.82545,0.97611
1729.89691,0.97344
1727.96837,0.97168
1726.03984,0.97116
1724.11130,0.97161
1722.18276,0.97250
1720.25423,0.97419
1718.32569,0.97836
1716.39716,0.98251
1714.46862,0.97939
1712.54008,0.97613
1710.61155,0.97508
1708.68301,0.97585
1706.75448,0.97831
1704.82594,0.98089
1702.89740,0.98200
1700.96887,0.98395
1699.04033,0.98773
1697.11180,0.98773
1695.18326,0.98314
1693.25472,0.97987
1691.32619,0.97914
1689.39765,0.98003
1687.46911,0.98137
1685.54058,0.98270
1683.61204,0.98219
1681.68351,0.97868
1679.75497,0.97568
1677.82643,0.97400
1675.89790,0.97337
1673.96936,0.97264
1672.04083,0.97191
1670.11229,0.96964
1668.18375,0.96397
1666.25522,0.96025
1664.32668,0.95887
1662.39814,0.95739
1660.46961,0.95472
1658.54107,0.95319
1656.61254,0.95347
1654.68400,0.95493
1652.75546,0.95257
1650.82693,0.94748
1648.89839,0.94460
1646.96986,0.93625
1645.04132,0.92440
1643.11278,0.91856
1641.18425,0.91615
1639.25571,0.91653
1637.32718,0.92101
1635.39864,0.92890
1633.47010,0.93086
1631.54157,0.93045
1629.61303,0.92996
1627.68449,0.92827
1625.75596,0.92506
1623.82742,0.91940
1621.89889,0.91145
1619.97035,0.90589
1618.04181,0.90112
1616.11328,0.89004
1614.18474,0.87608
1612.25621,0.86161
1610.32767,0.83809
1608.39913,0.79542
1606.47060,0.73452
1604.54206,0.66267
1602.61352,0.58601
1600.68499,0.53205
1598.75645,0.52608
1596.82792,0.56564
1594.89938,0.63526
1592.97084,0.70507
1591.04231,0.75745
1589.11377,0.79395
1587.18524,0.81555
1585.25670,0.82223
1583.32816,0.81282
1581.39963,0.78908
1579.47109,0.76056
1577.54256,0.73515
1575.61402,0.72901
1573.68548,0.74846
1571.75695,0.77759
1569.82841,0.82436
1567.89987,0.86880
1565.97134,0.88934
1564.04280,0.90212
1562.11427,0.91119
1560.18573,0.91920
1558.25719,0.93473
1556.32866,0.93909
1554.40012,0.93726
1552.47159,0.93517
1550.54305,0.93327
1548.61451,0.93122
1546.68598,0.93005
1544.75744,0.93092
1542.82890,0.93301
1540.90037,0.92528
1538.97183,0.90326
1537.04330,0.89454
1535.11476,0.88855
1533.18622,0.87662
1531.25769,0.86367
1529.32915,0.85413
1527.40062,0.83927
1525.47208,0.81209
1523.54354,0.77086
1521.61501,0.67946
1519.68647,0.58438
1517.75793,0.53683
1515.82940,0.51373
1513.90086,0.51967
1511.97233,0.54443
1510.04379,0.57401
1508.11525,0.59515
1506.18672,0.57827
1504.25818,0.55686
1502.32965,0.54102
1500.40111,0.52488
1498.47257,0.51096
1496.54404,0.50163
1494.61550,0.49498
1492.68697,0.48674
1490.75843,0.46585
1488.82989,0.41986
1486.90136,0.38444
1484.97282,0.37141
1483.04428,0.37010
1481.11575,0.38055
1479.18721,0.40086
1477.25868,0.42919
1475.33014,0.46857
1473.40160,0.52757
1471.47307,0.58469
1469.54453,0.60966
1467.61600,0.62486
1465.68746,0.64369
1463.75892,0.66290
1461.83039,0.67390
1459.90185,0.68159
1457.97331,0.69480
1456.04478,0.70777
1454.11624,0.70941
1452.18771,0.71095
1450.25917,0.71542
1448.33063,0.72372
1446.40210,0.73197
1444.47356,0.73471
1442.54503,0.73043
1440.61649,0.71971
1438.68795,0.70102
1436.75942,0.66444
1434.83088,0.62715
1432.90235,0.61464
1430.97381,0.61941
1429.04527,0.63587
1427.11674,0.65384
1425.18820,0.67114
1423.25966,0.68969
1421.33113,0.70511
1419.40259,0.72004
1417.47406,0.73507
1415.54552,0.74319
1413.61698,0.74960
1411.68845,0.75739
1409.75991,0.76648
1407.83138,0.77623
1405.90284,0.78752
1403.97430,0.79802
1402.04577,0.80286
1400.11723,0.80268
1398.18869,0.79729
1396.26016,0.78534
1394.33162,0.76619
1392.40309,0.74709
1390.47455,0.73192
1388.54601,0.71685
1386.61748,0.70257
1384.68894,0.69712
1382.76041,0.70168
1380.83187,0.71353
1378.90333,0.72969
1376.97480,0.74639
1375.04626,0.76309
1373.11773,0.77679
1371.18919,0.78211
1369.26065,0.78070
1367.33212,0.77357
1365.40358,0.76196
1363.47504,0.74300
1361.54651,0.71563
1359.61797,0.69313
1357.68944,0.67864
1355.76090,0.67004
1353.83236,0.66805
1351.90383,0.67188
1349.97529,0.67879
1348.04676,0.68453
1346.11822,0.68414
1344.18968,0.67518
1342.26115,0.65712
1340.33261,0.62333
1338.40407,0.57254
1336.47554,0.52725
1334.54700,0.49374
1332.61847,0.46670
1330.68993,0.44441
1328.76139,0.42719
1326.83286,0.41750
1324.90432,0.41775
1322.97579,0.42786
1321.04725,0.44655
1319.11871,0.47347
1317.19018,0.50489
1315.26164,0.53531
1313.33311,0.56175
1311.40457,0.57815
1309.47603,0.58331
1307.54750,0.58708
1305.61896,0.60096
1303.69042,0.62759
1301.76189,0.66056
1299.83335,0.69205
1297.90482,0.71879
1295.97628,0.74130
1294.04774,0.76092
1292.11921,0.77868
1290.19067,0.79489
1288.26214,0.80914
1286.33360,0.82070
1284.40506,0.82940
1282.47653,0.83570
1280.54799,0.83954
1278.61945,0.84004
1276.69092,0.83594
1274.76238,0.82587
1272.83385,0.80849
1270.90531,0.78383
1268.97677,0.75650
1267.04824,0.73706
1265.11970,0.73756
1263.19117,0.75971
1261.26263,0.79098
1259.33409,0.81676
1257.40556,0.83149
1255.47702,0.83815
1253.54849,0.84109
1251.61995,0.84315
1249.69141,0.84552
1247.76288,0.84767
1245.83434,0.84813
1243.90580,0.84547
1241.97727,0.83893
1240.04873,0.82862
1238.12020,0.81545
1236.19166,0.80133
1234.26312,0.78875
1232.33459,0.78009
1230.40605,0.77686
1228.47752,0.77929
1226.54898,0.78651
1224.62044,0.79702
1222.69191,0.80900
1220.76337,0.82109
1218.83483,0.83261
1216.90630,0.84309
1214.97776,0.85225
1213.04923,0.86002
1211.12069,0.86618
1209.19215,0.87046
1207.26362,0.87264
1205.33508,0.87246
1203.40655,0.86994
1201.47801,0.86631
1199.54947,0.86413
1197.62094,0.86592
1195.69240,0.87206
1193.76387,0.88001
1191.83533,0.88642
1189.90679,0.88892
1187.97826,0.88596
1186.04972,0.87623
1184.12118,0.85984
1182.19265,0.84062
1180.26411,0.82632
1178.33558,0.82291
1176.40704,0.82696
1174.47850,0.82732
1172.54997,0.81436
1170.62143,0.78542
1168.69290,0.74246
1166.76436,0.68847
1164.83582,0.62672
1162.90729,0.56194
1160.97875,0.50050
1159.05021,0.44852
1157.12168,0.41057
1155.19314,0.38984
1153.26461,0.38808
1151.33607,0.40450
1149.40753,0.43466
1147.47900,0.47099
1145.55046,0.50492
1143.62193,0.53036
1141.69339,0.54723
1139.76485,0.56067
1137.83632,0.57587
1135.90778,0.59428
1133.97924,0.61462
1132.05071,0.63564
1130.12217,0.65743
1128.19364,0.68056
1126.26510,0.70525
1124.33656,0.73096
1122.40803,0.75639
1120.47949,0.77997
1118.55096,0.80042
1116.62242,0.81722
1114.69388,0.83060
1112.76535,0.84102
1110.83681,0.84896
1108.90828,0.85468
1106.97974,0.85819
1105.05120,0.85922
1103.12267,0.85705
1101.19413,0.85090
1099.26559,0.84095
1097.33706,0.82986
1095.40852,0.82275
1093.47999,0.82368
1091.55145,0.83121
1089.62291,0.83957
1087.69438,0.84384
1085.76584,0.84239
1083.83731,0.83518
1081.90877,0.82152
1079.98023,0.79866
1078.05170,0.76161
1076.12316,0.70605
1074.19462,0.63424
1072.26609,0.55890
1070.33755,0.49850
1068.40902,0.46725
1066.48048,0.46888
1064.55194,0.49743
1062.62341,0.54247
1060.69487,0.59423
1058.76634,0.64560
1056.83780,0.69191
1054.90926,0.73066
1052.98073,0.76151
1051.05219,0.78590
1049.12366,0.80585
1047.19512,0.82284
1045.26658,0.83757
1043.33805,0.85011
1041.40951,0.86040
1039.48097,0.86858
1037.55244,0.87483
1035.62390,0.87925
1033.69537,0.88210
1031.76683,0.88388
1029.83829,0.88460
1027.90976,0.88386
1025.98122,0.88150
1024.05269,0.87763
1022.12415,0.87208
1020.19561,0.86417
1018.26708,0.85259
1016.33854,0.83516
1014.41000,0.80882
1012.48147,0.76995
1010.55293,0.71586
1008.62440,0.64760
1006.69586,0.57168
1004.76732,0.49862
1002.83879,0.43837
1000.91025,0.39389
998.98172,0.35826
997.05318,0.32345
995.12464,0.29420
993.19611,0.28626
991.26757,0.31073
989.33904,0.36447
987.41050,0.43210
985.48196,0.49452
983.55343,0.53742
981.62489,0.55520
979.69635,0.55010
977.76782,0.52921
975.83928,0.50126
973.91075,0.47460
971.98221,0.45581
970.05367,0.44932
968.12514,0.45810
966.19660,0.48328
964.26807,0.52232
962.33953,0.56930
960.41099,0.61793
958.48246,0.66345
956.55392,0.70323
954.62538,0.73649
952.69685,0.76356
950.76831,0.78532
948.83978,0.80282
946.91124,0.81692
944.98270,0.82835
943.05417,0.83779
941.12563,0.84572
939.19710,0.85234
937.26856,0.85790
935.34002,0.86271
933.41149,0.86690
931.48295,0.87039
929.55442,0.87303
927.62588,0.87464
925.69734,0.87512
923.76881,0.87458
921.84027,0.87319
919.91173,0.87097
917.98320,0.86786
916.05466,0.86393
914.12613,0.85921
912.19759,0.85356
910.26905,0.84671
908.34052,0.83831
906.41198,0.82783
904.48345,0.81454
902.55491,0.79780
900.62637,0.77720
898.69784,0.75241
896.76930,0.72317
894.84076,0.68950
892.91223,0.65191
890.98369,0.61342
889.05516,0.58245
887.12662,0.57024
885.19808,0.58150
883.26955,0.60919
881.34101,0.64101
879.41248,0.66830
877.48394,0.68811
875.55540,0.70093
873.62687,0.70829
871.69833,0.71160
869.76980,0.71192
867.84126,0.71006
865.91272,0.70663
863.98419,0.70197
862.05565,0.69611
860.12711,0.68899
858.19858,0.68107
856.27004,0.67373
854.34151,0.66908
852.41297,0.66954
850.48443,0.67693
848.55590,0.69153
846.62736,0.71199
844.69883,0.73588
842.77029,0.76045
840.84175,0.78336
838.91322,0.80302
836.98468,0.81893
835.05614,0.83169
833.12761,0.84222
831.19907,0.85107
829.27054,0.85838
827.34200,0.86434
825.41346,0.86920
823.48493,0.87318
821.55639,0.87648
819.62786,0.87899
817.69932,0.88055
815.77078,0.88100
813.84225,0.88006
811.91371,0.87720
809.98517,0.87175
808.05664,0.86258
806.12810,0.84772
804.19957,0.82437
802.27103,0.78974
800.34249,0.74319
798.41396,0.68894
796.48542,0.63798
794.55689,0.60486
792.62835,0.60087
790.69981,0.62729
788.77128,0.67151
786.84274,0.71290
784.91421,0.73651
782.98567,0.74025
781.05713,0.73071
779.12860,0.71604
777.20006,0.70262
775.27152,0.69399
773.34299,0.68939
771.41445,0.68428
769.48592,0.67445
767.55738,0.65971
765.62884,0.64386
763.70031,0.63240
761.77177,0.63078
759.84324,0.64168
757.91470,0.66136
755.98616,0.67947
754.05763,0.68527
752.12909,0.67413
750.20055,0.64713
748.27202,0.60737
746.34348,0.55887
744.41495,0.50667
742.48641,0.45599
740.55787,0.41092
738.62934,0.37434
736.70080,0.34800
734.77227,0.33351
732.84373,0.33396
730.91519,0.35353
728.98666,0.39321
727.05812,0.44776
725.12959,0.50763
723.20105,0.56370
721.27251,0.61206
719.34398,0.65167
717.41544,0.68168
715.48690,0.70341
713.55837,0.71775
711.62983,0.72222
709.70130,0.71295
707.77276,0.68935
705.84422,0.65786
703.91569,0.62843
701.98715,0.60444
700.05862,0.57986
698.13008,0.55020
696.20154,0.52398
694.27301,0.51761
692.34447,0.53604
690.41593,0.56789
688.48740,0.59971
686.55886,0.62750
684.63033,0.65382
682.70179,0.67993
680.77325,0.70488
678.84472,0.72881
676.91618,0.75240
674.98765,0.77477
673.05911,0.79299
671.13057,0.80473
669.20204,0.81111
667.27350,0.81353
665.34497,0.81441
663.41643,0.81630
661.48789,0.82057
659.55936,0.82746
657.63082,0.83518
655.70228,0.83998
653.77375,0.83470
651.84521,0.80462
649.91668,0.74240
647.98814,0.68529
646.05960,0.68678
644.13107,0.73810
642.20253,0.78849
640.27400,0.81587
638.34546,0.82788
636.41692,0.83271
634.48839,0.83361
632.55985,0.83177
630.63131,0.82810
628.70278,0.82346
626.77424,0.81833
624.84571,0.81307
622.91717,0.80832
620.98863,0.80407
619.06010,0.79973
617.13156,0.79560
615.20303,0.79345
613.27449,0.79542
611.34595,0.80208
609.41742,0.81172
607.48888,0.82122
605.56035,0.82828
603.63181,0.83245
601.70327,0.83404
599.77474,0.83325
597.84620,0.83033
595.91766,0.82597
593.98913,0.82086
592.06059,0.81521
590.13206,0.80993
588.20352,0.80647
586.27498,0.80545
584.34645,0.80638
582.41791,0.80805
580.48938,0.80947
578.56084,0.80992
576.63230,0.80885
574.70377,0.80604
572.77523,0.80246
570.84669,0.79869
568.91816,0.79416
566.98962,0.78853
565.06109,0.78217
563.13255,0.77554
561.20401,0.76876
559.27548,0.76162
557.34694,0.75351
555.41841,0.74414
553.48987,0.73401
551.56133,0.72336
549.63280,0.71174
547.70426,0.69847
545.77573,0.68313
543.84719,0.66630
541.91865,0.64801
539.99012,0.62678
538.06158,0.60152
536.13304,0.57204
534.20451,0.54018
532.27597,0.50850
530.34744,0.47878
528.41890,0.45420
526.49036,0.43851
524.56183,0.43474
522.63329,0.44110
520.70476,0.45627
518.77622,0.48501
516.84768,0.52877
514.91915,0.57373
512.99061,0.60896
511.06207,0.63038
509.13354,0.62959
507.20500,0.59941
505.27647,0.54997
503.34793,0.50448
501.41939,0.48378
499.49086,0.49678
497.56232,0.52782
495.63379,0.55689
493.70525,0.57558
491.77671,0.59003
489.84818,0.60865
487.91964,0.63215
485.99110,0.65848
484.06257,0.68411
482.13403,0.70358
480.20550,0.71606
478.27696,0.72427
476.34842,0.72997
474.41989,0.73311
472.49135,0.73042
470.56282,0.72020
468.63428,0.70626
466.70574,0.69271
464.77721,0.68322
462.84867,0.67615
460.92014,0.66778
458.99160,0.65732
457.06306,0.64896
455.13453,0.64993
453.20599,0.66037
451.27745,0.67637
449.34892,0.69179
447.42038,0.70481
445.49185,0.71540
443.56331,0.72383
441.63477,0.72993
439.70624,0.73316
437.77770,0.73555
435.84917,0.73825
433.92063,0.74051
431.99209,0.74140
430.06356,0.74114
428.13502,0.74028
426.20648,0.74001
424.27795,0.74115
422.34941,0.74321
420.42088,0.74673
418.49234,0.75075
416.56380,0.74975
414.63527,0.74708
412.70673,0.74563
410.77820,0.74619
408.84966,0.74803
406.92112,0.74970
404.99259,0.75129
403.06405,0.75315
401.13552,0.75317
399.20698,0.74861
