3997.85540,0.90763
3995.92686,0.90773
3993.99833,0.90787
3992.06979,0.90797
3990.14125,0.90792
3988.21272,0.90775
3986.28418,0.90764
3984.35565,0.90761
3982.42711,0.90757
3980.49857,0.90760
3978.57004,0.90776
3976.64150,0.90785
3974.71297,0.90778
3972.78443,0.90776
3970.85589,0.90787
3968.92736,0.90794
3966.99882,0.90790
3965.07029,0.90785
3963.14175,0.90790
3961.21321,0.90803
3959.28468,0.90821
3957.35614,0.90839
3955.42760,0.90862
3953.49907,0.90882
3951.57053,0.90883
3949.64200,0.90867
3947.71346,0.90860
3945.78492,0.90875
3943.85639,0.90879
3941.92785,0.90855
3939.99932,0.90847
3938.07078,0.90864
3936.14224,0.90886
3934.21371,0.90896
3932.28517,0.90868
3930.35663,0.90817
3928.42810,0.90806
3926.49956,0.90823
3924.57103,0.90819
3922.64249,0.90802
3920.71395,0.90814
3918.78542,0.90829
3916.85688,0.90817
3914.92835,0.90816
3912.99981,0.90847
3911.07127,0.90886
3909.14274,0.90924
3907.21420,0.90964
3905.28566,0.90995
3903.35713,0.90999
3901.42859,0.90970
3899.50006,0.90910
3897.57152,0.90884
3895.64298,0.90917
3893.71445,0.90955
3891.78591,0.90938
3889.85738,0.90913
3887.92884,0.90935
3886.00030,0.90943
3884.07177,0.90927
3882.14323,0.90933
3880.21470,0.90926
3878.28616,0.90936
3876.35762,0.90984
3874.42909,0.91019
3872.50055,0.91023
3870.57201,0.90998
3868.64348,0.90965
3866.71494,0.90989
3864.78641,0.91013
3862.85787,0.90979
3860.92933,0.90971
3859.00080,0.91013
3857.07226,0.91080
3855.14373,0.91139
3853.21519,0.91066
3851.28665,0.90957
3849.35812,0.90963
3847.42958,0.91003
3845.50104,0.91049
3843.57251,0.91084
3841.64397,0.91098
3839.71544,0.91081
3837.78690,0.91009
3835.85836,0.90954
3833.92983,0.90953
3832.00129,0.90980
3830.07276,0.91014
3828.14422,0.91034
3826.21568,0.91050
3824.28715,0.91090
3822.35861,0.91108
3820.43008,0.91035
3818.50154,0.91023
3816.57300,0.91043
3814.64447,0.91026
3812.71593,0.91056
3810.78739,0.91115
3808.85886,0.91148
3806.93032,0.91111
3805.00179,0.91076
3803.07325,0.91086
3801.14471,0.91065
3799.21618,0.91062
3797.28764,0.91078
3795.35911,0.91072
3793.43057,0.91089
3791.50203,0.91126
3789.57350,0.91158
3787.64496,0.91181
3785.71642,0.91183
3783.78789,0.91183
3781.85935,0.91214
3779.93082,0.91233
3778.00228,0.91218
3776.07374,0.91221
3774.14521,0.91250
3772.21667,0.91287
3770.28814,0.91289
3768.35960,0.91263
3766.43106,0.91259
3764.50253,0.91261
3762.57399,0.91284
3760.64546,0.91321
3758.71692,0.91313
3756.78838,0.91290
3754.85985,0.91326
3752.93131,0.91404
3751.00277,0.91396
3749.07424,0.91294
3747.14570,0.91330
3745.21717,0.91378
3743.28863,0.91338
3741.36009,0.91326
3739.43156,0.91383
3737.50302,0.91451
3735.57449,0.91415
3733.64595,0.91295
3731.71741,0.91287
3729.78888,0.91336
3727.86034,0.91380
3725.93180,0.91392
3724.00327,0.91376
3722.07473,0.91363
3720.14620,0.91353
3718.21766,0.91352
3716.28912,0.91380
3714.36059,0.91431
3712.43205,0.91447
3710.50352,0.91364
3708.57498,0.91344
3706.64644,0.91391
3704.71791,0.91436
3702.78937,0.91444
3700.86084,0.91417
3698.93230,0.91411
3697.00376,0.91424
3695.07523,0.91445
3693.14669,0.91490
3691.21815,0.91530
3689.28962,0.91441
3687.36108,0.91339
3685.43255,0.91355
3683.50401,0.91405
3681.57547,0.91452
3679.64694,0.91501
3677.71840,0.91545
3675.78987,0.91495
3673.86133,0.91437
3671.93279,0.91490
3670.00426,0.91488
3668.07572,0.91437
3666.14718,0.91459
3664.21865,0.91495
3662.29011,0.91515
3660.36158,0.91533
3658.43304,0.91563
3656.50450,0.91569
3654.57597,0.91551
3652.64743,0.91570
3650.71890,0.91593
3648.79036,0.91501
3646.86182,0.91445
3644.93329,0.91480
3643.00475,0.91519
3641.07622,0.91545
3639.14768,0.91561
3637.21914,0.91575
3635.29061,0.91591
3633.36207,0.91615
3631.43353,0.91658
3629.50500,0.91644
3627.57646,0.91529
3625.64793,0.91526
3623.71939,0.91588
3621.79085,0.91652
3619.86232,0.91674
3617.93378,0.91627
3616.00525,0.91592
3614.07671,0.91564
3612.14817,0.91537
3610.21964,0.91546
3608.29110,0.91546
3606.36256,0.91529
3604.43403,0.91545
3602.50549,0.91571
3600.57696,0.91575
3598.64842,0.91579
3596.71988,0.91605
3594.79135,0.91614
3592.86281,0.91615
3590.93428,0.91653
3589.00574,0.91693
3587.07720,0.91650
3585.14867,0.91597
3583.22013,0.91609
3581.29160,0.91625
3579.36306,0.91632
3577.43452,0.91648
3575.50599,0.91661
3573.57745,0.91657
3571.64891,0.91661
3569.72038,0.91687
3567.79184,0.91668
3565.86331,0.91577
3563.93477,0.91561
3562.00623,0.91592
3560.07770,0.91613
3558.14916,0.91633
3556.22063,0.91662
3554.29209,0.91668
3552.36355,0.91628
3550.43502,0.91599
3548.50648,0.91609
3546.57794,0.91600
3544.64941,0.91553
3542.72087,0.91541
3540.79234,0.91576
3538.86380,0.91621
3536.93526,0.91633
3535.00673,0.91617
3533.07819,0.91620
3531.14966,0.91634
3529.22112,0.91630
3527.29258,0.91615
3525.36405,0.91606
3523.43551,0.91591
3521.50697,0.91576
3519.57844,0.91574
3517.64990,0.91581
3515.72137,0.91587
3513.79283,0.91589
3511.86429,0.91587
3509.93576,0.91577
3508.00722,0.91568
3506.07869,0.91582
3504.15015,0.91589
3502.22161,0.91566
3500.29308,0.91556
3498.36454,0.91562
3496.43601,0.91558
3494.50747,0.91555
3492.57893,0.91555
3490.65040,0.91542
3488.72186,0.91515
3486.79332,0.91492
3484.86479,0.91492
3482.93625,0.91501
3481.00772,0.91496
3479.07918,0.91482
3477.15064,0.91472
3475.22211,0.91452
3473.29357,0.91400
3471.36504,0.91306
3469.43650,0.91150
3467.50796,0.90881
3465.57943,0.90441
3463.65089,0.89725
3461.72235,0.88532
3459.79382,0.86760
3457.86528,0.84610
3455.93675,0.82718
3454.00821,0.81944
3452.07967,0.82506
3450.15114,0.83792
3448.22260,0.85232
3446.29407,0.86528
3444.36553,0.87477
3442.43699,0.88147
3440.50846,0.88643
3438.57992,0.89000
3436.65139,0.89265
3434.72285,0.89467
3432.79431,0.89629
3430.86578,0.89760
3428.93724,0.89875
3427.00870,0.89979
3425.08017,0.90055
3423.15163,0.90096
3421.22310,0.90119
3419.29456,0.90150
3417.36602,0.90202
3415.43749,0.90263
3413.50895,0.90311
3411.58042,0.90337
3409.65188,0.90354
3407.72334,0.90371
3405.79481,0.90379
3403.86627,0.90375
3401.93773,0.90375
3400.00920,0.90387
3398.08066,0.90410
3396.15213,0.90433
3394.22359,0.90448
3392.29505,0.90456
3390.36652,0.90457
3388.43798,0.90447
3386.50945,0.90407
3384.58091,0.90320
3382.65237,0.90186
3380.72384,0.89987
3378.79530,0.89675
3376.86677,0.89173
3374.93823,0.88348
3373.00969,0.86981
3371.08116,0.84794
3369.15262,0.81685
3367.22408,0.78339
3365.29555,0.76377
3363.36701,0.76944
3361.43848,0.79438
3359.50994,0.82361
3357.58140,0.84731
3355.65287,0.86382
3353.72433,0.87453
3351.79580,0.88144
3349.86726,0.88622
3347.93872,0.88973
3346.01019,0.89242
3344.08165,0.89456
3342.15311,0.89630
3340.22458,0.89776
3338.29604,0.89903
3336.36751,0.90010
3334.43897,0.90095
3332.51043,0.90159
3330.58190,0.90214
3328.65336,0.90280
3326.72483,0.90356
3324.79629,0.90420
3322.86775,0.90463
3320.93922,0.90500
3319.01068,0.90534
3317.08215,0.90573
3315.15361,0.90620
3313.22507,0.90670
3311.29654,0.90725
3309.36800,0.90770
3307.43946,0.90796
3305.51093,0.90815
3303.58239,0.90837
3301.65386,0.90864
3299.72532,0.90898
3297.79678,0.90929
3295.86825,0.90947
3293.93971,0.90951
3292.01118,0.90943
3290.08264,0.90936
3288.15410,0.90942
3286.22557,0.90951
3284.29703,0.90960
3282.36849,0.90960
3280.43996,0.90948
3278.51142,0.90936
3276.58289,0.90936
3274.65435,0.90940
3272.72581,0.90949
3270.79728,0.90971
3268.86874,0.91002
3266.94021,0.91023
3265.01167,0.91038
3263.08313,0.91062
3261.15460,0.91091
3259.22606,0.91108
3257.29753,0.91119
3255.36899,0.91129
3253.44045,0.91131
3251.51192,0.91132
3249.58338,0.91135
3247.65484,0.91132
3245.72631,0.91114
3243.79777,0.91085
3241.86924,0.91060
3239.94070,0.91049
3238.01216,0.91052
3236.08363,0.91062
3234.15509,0.91053
3232.22656,0.91005
3230.29802,0.90928
3228.36948,0.90844
3226.44095,0.90759
3224.51241,0.90671
3222.58387,0.90577
3220.65534,0.90472
3218.72680,0.90350
3216.79827,0.90239
3214.86973,0.90185
3212.94119,0.90200
3211.01266,0.90276
3209.08412,0.90409
3207.15559,0.90572
3205.22705,0.90724
3203.29851,0.90849
3201.36998,0.90951
3199.44144,0.91036
3197.51290,0.91102
3195.58437,0.91152
3193.65583,0.91194
3191.72730,0.91234
3189.79876,0.91262
3187.87022,0.91278
3185.94169,0.91290
3184.01315,0.91303
3182.08462,0.91312
3180.15608,0.91323
3178.22754,0.91337
3176.29901,0.91349
3174.37047,0.91349
3172.44194,0.91342
3170.51340,0.91339
3168.58486,0.91334
3166.65633,0.91315
3164.72779,0.91280
3162.79925,0.91245
3160.87072,0.91222
3158.94218,0.91224
3157.01365,0.91264
3155.08511,0.91335
3153.15657,0.91397
3151.22804,0.91411
3149.29950,0.91377
3147.37097,0.91338
3145.44243,0.91321
3143.51389,0.91335
3141.58536,0.91379
3139.65682,0.91426
3137.72828,0.91446
3135.79975,0.91446
3133.87121,0.91452
3131.94268,0.91468
3130.01414,0.91489
3128.08560,0.91501
3126.15707,0.91509
3124.22853,0.91523
3122.30000,0.91536
3120.37146,0.91542
3118.44292,0.91550
3116.51439,0.91559
3114.58585,0.91564
3112.65732,0.91557
3110.72878,0.91538
3108.80024,0.91517
3106.87171,0.91494
3104.94317,0.91455
3103.01463,0.91402
3101.08610,0.91345
3099.15756,0.91297
3097.22903,0.91279
3095.30049,0.91302
3093.37195,0.91354
3091.44342,0.91399
3089.51488,0.91416
3087.58635,0.91416
3085.65781,0.91428
3083.72927,0.91456
3081.80074,0.91488
3079.87220,0.91512
3077.94366,0.91505
3076.01513,0.91463
3074.08659,0.91409
3072.15806,0.91373
3070.22952,0.91377
3068.30098,0.91417
3066.37245,0.91460
3064.44391,0.91479
3062.51538,0.91478
3060.58684,0.91470
3058.65830,0.91468
3056.72977,0.91469
3054.80123,0.91463
3052.87270,0.91447
3050.94416,0.91402
3049.01562,0.91302
3047.08709,0.91169
3045.15855,0.91069
3043.23001,0.91042
3041.30148,0.91075
3039.37294,0.91132
3037.44441,0.91204
3035.51587,0.91296
3033.58733,0.91378
3031.65880,0.91420
3029.73026,0.91431
3027.80173,0.91445
3025.87319,0.91482
3023.94465,0.91526
3022.01612,0.91560
3020.08758,0.91589
3018.15904,0.91609
3016.23051,0.91618
3014.30197,0.91621
3012.37344,0.91615
3010.44490,0.91589
3008.51636,0.91542
3006.58783,0.91495
3004.65929,0.91470
3002.73076,0.91462
3000.80222,0.91465
2998.87368,0.91484
2996.94515,0.91505
2995.01661,0.91524
2993.08808,0.91536
2991.15954,0.91504
2989.23100,0.91419
2987.30247,0.91329
2985.37393,0.91273
2983.44539,0.91251
2981.51686,0.91198
2979.58832,0.91012
2977.65979,0.90653
2975.73125,0.90143
2973.80271,0.89489
2971.87418,0.88784
2969.94564,0.88280
2968.01711,0.88152
2966.08857,0.88321
2964.16003,0.88562
2962.23150,0.88689
2960.30296,0.88665
2958.37442,0.88555
2956.44589,0.88398
2954.51735,0.88164
2952.58882,0.87778
2950.66028,0.87247
2948.73174,0.86747
2946.80321,0.86478
2944.87467,0.86484
2942.94614,0.86649
2941.01760,0.86820
2939.08906,0.86917
2937.16053,0.86918
2935.23199,0.86825
2933.30346,0.86666
2931.37492,0.86461
2929.44638,0.86193
2927.51785,0.85857
2925.58931,0.85513
2923.66077,0.85252
2921.73224,0.85150
2919.80370,0.85241
2917.87517,0.85487
2915.94663,0.85786
2914.01809,0.86052
2912.08956,0.86254
2910.16102,0.86420
2908.23249,0.86606
2906.30395,0.86856
2904.37541,0.87164
2902.44688,0.87484
2900.51834,0.87782
2898.58980,0.88045
2896.66127,0.88259
2894.73273,0.88412
2892.80420,0.88537
2890.87566,0.88689
2888.94712,0.88879
2887.01859,0.89083
2885.09005,0.89269
2883.16152,0.89419
2881.23298,0.89515
2879.30444,0.89552
2877.37591,0.89539
2875.44737,0.89493
2873.51883,0.89424
2871.59030,0.89347
2869.66176,0.89295
2867.73323,0.89288
2865.80469,0.89294
2863.87615,0.89269
2861.94762,0.89199
2860.01908,0.89074
2858.09055,0.88888
2856.16201,0.88673
2854.23347,0.88466
2852.30494,0.88252
2850.37640,0.87928
2848.44787,0.87290
2846.51933,0.86327
2844.59079,0.85555
2842.66226,0.85609
2840.73372,0.86444
2838.80518,0.87476
2836.87665,0.88297
2834.94811,0.88869
2833.01958,0.89281
2831.09104,0.89600
2829.16250,0.89855
2827.23397,0.90064
2825.30543,0.90235
2823.37690,0.90363
2821.44836,0.90445
2819.51982,0.90507
2817.59129,0.90574
2815.66275,0.90640
2813.73421,0.90707
2811.80568,0.90785
2809.87714,0.90860
2807.94861,0.90910
2806.02007,0.90944
2804.09153,0.90980
2802.16300,0.91024
2800.23446,0.91069
2798.30593,0.91105
2796.37739,0.91130
2794.44885,0.91148
2792.52032,0.91167
2790.59178,0.91194
2788.66325,0.91223
2786.73471,0.91253
2784.80617,0.91285
2782.87764,0.91314
2780.94910,0.91336
2779.02056,0.91355
2777.09203,0.91374
2775.16349,0.91388
2773.23496,0.91395
2771.30642,0.91398
2769.37788,0.91409
2767.44935,0.91427
2765.52081,0.91443
2763.59228,0.91457
2761.66374,0.91470
2759.73520,0.91481
2757.80667,0.91487
2755.87813,0.91485
2753.94959,0.91485
2752.02106,0.91501
2750.09252,0.91530
2748.16399,0.91553
2746.23545,0.91567
2744.30691,0.91575
2742.37838,0.91577
2740.44984,0.91571
2738.52131,0.91559
2736.59277,0.91542
2734.66423,0.91526
2732.73570,0.91518
2730.80716,0.91524
2728.87863,0.91537
2726.95009,0.91552
2725.02155,0.91564
2723.09302,0.91574
2721.16448,0.91586
2719.23594,0.91604
2717.30741,0.91623
2715.37887,0.91637
2713.45034,0.91649
2711.52180,0.91669
2709.59326,0.91693
2707.66473,0.91712
2705.73619,0.91724
2703.80766,0.91733
2701.87912,0.91743
2699.95058,0.91756
2698.02205,0.91764
2696.09351,0.91769
2694.16497,0.91774
2692.23644,0.91780
2690.30790,0.91789
2688.37937,0.91800
2686.45083,0.91801
2684.52229,0.91796
2682.59376,0.91791
2680.66522,0.91784
2678.73669,0.91770
2676.80815,0.91738
2674.87961,0.91690
2672.95108,0.91643
2671.02254,0.91615
2669.09401,0.91611
2667.16547,0.91631
2665.23693,0.91670
2663.30840,0.91713
2661.37986,0.91752
2659.45132,0.91781
2657.52279,0.91798
2655.59425,0.91810
2653.66572,0.91822
2651.73718,0.91835
2649.80864,0.91845
2647.88011,0.91851
2645.95157,0.91851
2644.02304,0.91852
2642.09450,0.91857
2640.16596,0.91870
2638.23743,0.91890
2636.30889,0.91915
2634.38035,0.91943
2632.45182,0.91969
2630.52328,0.91996
2628.59475,0.92021
2626.66621,0.92041
2624.73767,0.92054
2622.80914,0.92069
2620.88060,0.92092
2618.95207,0.92114
2617.02353,0.92116
2615.09499,0.92095
2613.16646,0.92058
2611.23792,0.92016
2609.30939,0.91984
2607.38085,0.91971
2605.45231,0.91977
2603.52378,0.92007
2601.59524,0.92052
2599.66670,0.92095
2597.73817,0.92133
2595.80963,0.92167
2593.88110,0.92184
2591.95256,0.92183
2590.02402,0.92187
2588.09549,0.92199
2586.16695,0.92213
2584.23842,0.92232
2582.30988,0.92256
2580.38134,0.92274
2578.45281,0.92278
2576.52427,0.92260
2574.59573,0.92222
2572.66720,0.92184
2570.73866,0.92161
2568.81013,0.92150
2566.88159,0.92147
2564.95305,0.92144
2563.02452,0.92132
2561.09598,0.92126
2559.16745,0.92135
2557.23891,0.92155
2555.31037,0.92188
2553.38184,0.92242
2551.45330,0.92303
2549.52476,0.92356
2547.59623,0.92399
2545.66769,0.92439
2543.73916,0.92471
2541.81062,0.92489
2539.88208,0.92501
2537.95355,0.92510
2536.02501,0.92503
2534.09648,0.92489
2532.16794,0.92481
2530.23940,0.92460
2528.31087,0.92410
2526.38233,0.92348
2524.45380,0.92296
2522.52526,0.92267
2520.59672,0.92271
2518.66819,0.92309
2516.73965,0.92375
2514.81111,0.92444
2512.88258,0.92494
2510.95404,0.92532
2509.02551,0.92560
2507.09697,0.92576
2505.16843,0.92590
2503.23990,0.92602
2501.31136,0.92599
2499.38283,0.92587
2497.45429,0.92576
2495.52575,0.92567
2493.59722,0.92558
2491.66868,0.92545
2489.74014,0.92525
2487.81161,0.92501
2485.88307,0.92476
2483.95454,0.92443
2482.02600,0.92397
2480.09746,0.92343
2478.16893,0.92308
2476.24039,0.92310
2474.31186,0.92341
2472.38332,0.92382
2470.45478,0.92422
2468.52625,0.92461
2466.59771,0.92498
2464.66918,0.92520
2462.74064,0.92526
2460.81210,0.92532
2458.88357,0.92557
2456.95503,0.92592
2455.02649,0.92632
2453.09796,0.92674
2451.16942,0.92706
2449.24089,0.92722
2447.31235,0.92737
2445.38381,0.92751
2443.45528,0.92755
2441.52674,0.92754
2439.59821,0.92753
2437.66967,0.92750
2435.74113,0.92749
2433.81260,0.92754
2431.88406,0.92759
2429.95552,0.92760
2428.02699,0.92758
2426.09845,0.92758
2424.16992,0.92763
2422.24138,0.92767
2420.31284,0.92752
2418.38431,0.92719
2416.45577,0.92687
2414.52724,0.92674
2412.59870,0.92675
2410.67016,0.92680
2408.74163,0.92691
2406.81309,0.92708
2404.88456,0.92720
2402.95602,0.92724
2401.02748,0.92711
2399.09895,0.92677
2397.17041,0.92624
2395.24187,0.92568
2393.31334,0.92534
2391.38480,0.92531
2389.45627,0.92548
2387.52773,0.92575
2385.59919,0.92613
2383.67066,0.92654
2381.74212,0.92687
2379.81359,0.92698
2377.88505,0.92699
2375.95651,0.92710
2374.02798,0.92719
2372.09944,0.92708
2370.17090,0.92696
2368.24237,0.92702
2366.31383,0.92723
2364.38530,0.92732
2362.45676,0.92693
2360.52822,0.92627
2358.59969,0.92602
2356.67115,0.92627
2354.74262,0.92627
2352.81408,0.92589
2350.88554,0.92575
2348.95701,0.92599
2347.02847,0.92635
2345.09994,0.92669
2343.17140,0.92690
2341.24286,0.92709
2339.31433,0.92736
2337.38579,0.92769
2335.45725,0.92816
2333.52872,0.92869
2331.60018,0.92899
2329.67165,0.92908
2327.74311,0.92930
2325.81457,0.92968
2323.88604,0.92990
2321.95750,0.92983
2320.02897,0.92969
2318.10043,0.92969
2316.17189,0.92984
2314.24336,0.93006
2312.31482,0.93023
2310.38628,0.93044
2308.45775,0.93075
2306.52921,0.93104
2304.60068,0.93125
2302.67214,0.93145
2300.74360,0.93171
2298.81507,0.93205
2296.88653,0.93228
2294.95800,0.93229
2293.02946,0.93229
2291.10092,0.93241
2289.17239,0.93259
2287.24385,0.93286
2285.31532,0.93326
2283.38678,0.93357
2281.45824,0.93377
2279.52971,0.93398
2277.60117,0.93406
2275.67263,0.93409
2273.74410,0.93436
2271.81556,0.93470
2269.88703,0.93486
2267.95849,0.93501
2266.02995,0.93527
2264.10142,0.93556
2262.17288,0.93588
2260.24435,0.93618
2258.31581,0.93635
2256.38727,0.93638
2254.45874,0.93637
2252.53020,0.93644
2250.60166,0.93647
2248.67313,0.93636
2246.74459,0.93635
2244.81606,0.93657
2242.88752,0.93675
2240.95898,0.93686
2239.03045,0.93709
2237.10191,0.93730
2235.17338,0.93726
2233.24484,0.93716
2231.31630,0.93720
2229.38777,0.93711
2227.45923,0.93680
2225.53070,0.93649
2223.60216,0.93633
2221.67362,0.93623
2219.74509,0.93623
2217.81655,0.93648
2215.88801,0.93686
2213.95948,0.93714
2212.03094,0.93725
2210.10241,0.93728
2208.17387,0.93731
2206.24533,0.93741
2204.31680,0.93763
2202.38826,0.93793
2200.45973,0.93842
2198.53119,0.93919
2196.60265,0.93994
2194.67412,0.94024
2192.74558,0.94013
2190.81704,0.94003
2188.88851,0.94010
2186.95997,0.94036
2185.03144,0.94075
2183.10290,0.94106
2181.17436,0.94126
2179.24583,0.94146
2177.31729,0.94179
2175.38876,0.94223
2173.46022,0.94258
2171.53168,0.94273
2169.60315,0.94293
2167.67461,0.94341
2165.74607,0.94414
2163.81754,0.94492
2161.88900,0.94551
2159.96047,0.94564
2158.03193,0.94528
2156.10339,0.94484
2154.17486,0.94447
2152.24632,0.94396
2150.31779,0.94337
2148.38925,0.94307
2146.46071,0.94292
2144.53218,0.94250
2142.60364,0.94188
2140.67511,0.94131
2138.74657,0.94097
2136.81803,0.94088
2134.88950,0.94092
2132.96096,0.94097
2131.03242,0.94090
2129.10389,0.94084
2127.17535,0.94086
2125.24682,0.94103
2123.31828,0.94139
2121.38974,0.94163
2119.46121,0.94158
2117.53267,0.94138
2115.60414,0.94125
2113.67560,0.94121
2111.74706,0.94112
2109.81853,0.94094
2107.88999,0.94094
2105.96145,0.94118
2104.03292,0.94122
2102.10438,0.94109
2100.17585,0.94126
2098.24731,0.94159
2096.31877,0.94150
2094.39024,0.94098
2092.46170,0.94052
2090.53317,0.94036
2088.60463,0.94032
2086.67609,0.94025
2084.74756,0.93999
2082.81902,0.93944
2080.89049,0.93864
2078.96195,0.93791
2077.03341,0.93745
2075.10488,0.93727
2073.17634,0.93745
2071.24780,0.93815
2069.31927,0.93917
2067.39073,0.94014
2065.46220,0.94102
2063.53366,0.94166
2061.60512,0.94176
2059.67659,0.94140
2057.74805,0.94094
2055.81952,0.94075
2053.89098,0.94108
2051.96244,0.94185
2050.03391,0.94294
2048.10537,0.94409
2046.17683,0.94496
2044.24830,0.94551
2042.31976,0.94593
2040.39123,0.94629
2038.46269,0.94659
2036.53415,0.94701
2034.60562,0.94757
2032.67708,0.94810
2030.74855,0.94848
2028.82001,0.94866
2026.89147,0.94878
2024.96294,0.94887
2023.03440,0.94875
2021.10587,0.94839
2019.17733,0.94789
2017.24879,0.94743
2015.32026,0.94708
2013.39172,0.94669
2011.46318,0.94633
2009.53465,0.94622
2007.60611,0.94640
2005.67758,0.94694
2003.74904,0.94772
2001.82050,0.94822
1999.89197,0.94817
1997.96343,0.94817
1996.03490,0.94874
1994.10636,0.94962
1992.17782,0.95036
1990.24929,0.95051
1988.32075,0.95019
1986.39221,0.94996
1984.46368,0.95026
1982.53514,0.95087
1980.60661,0.95133
1978.67807,0.95180
1976.74953,0.95228
1974.82100,0.95242
1972.89246,0.95231
1970.96393,0.95216
1969.03539,0.95184
1967.10685,0.95118
1965.17832,0.95068
1963.24978,0.95070
1961.32125,0.95079
1959.39271,0.95059
1957.46417,0.95037
1955.53564,0.95030
1953.60710,0.95010
1951.67856,0.94975
1949.75003,0.94923
1947.82149,0.94847
1945.89296,0.94738
1943.96442,0.94565
1942.03588,0.94349
1940.10735,0.94250
1938.17881,0.94317
1936.25028,0.94450
1934.32174,0.94570
1932.39320,0.94627
1930.46467,0.94622
1928.53613,0.94616
1926.60759,0.94637
1924.67906,0.94682
1922.75052,0.94742
1920.82199,0.94813
1918.89345,0.94880
1916.96491,0.94916
1915.03638,0.94927
1913.10784,0.94946
1911.17931,0.94965
1909.25077,0.94965
1907.32223,0.94960
1905.39370,0.94970
1903.46516,0.94990
1901.53663,0.95002
1899.60809,0.94990
1897.67955,0.94974
1895.75102,0.94965
1893.82248,0.94964
1891.89394,0.94963
1889.96541,0.94952
1888.03687,0.94940
1886.10834,0.94940
1884.17980,0.94949
1882.25126,0.94957
1880.32273,0.94956
1878.39419,0.94944
1876.46566,0.94924
1874.53712,0.94900
1872.60858,0.94877
1870.68005,0.94840
1868.75151,0.94739
1866.82297,0.94602
1864.89444,0.94498
1862.96590,0.94432
1861.03737,0.94442
1859.10883,0.94527
1857.18029,0.94621
1855.25176,0.94673
1853.32322,0.94681
1851.39469,0.94671
1849.46615,0.94668
1847.53761,0.94681
1845.60908,0.94693
1843.68054,0.94713
1841.75200,0.94774
1839.82347,0.94858
1837.89493,0.94934
1835.96640,0.94987
1834.03786,0.95026
1832.10932,0.95055
1830.18079,0.95056
1828.25225,0.95040
1826.32372,0.95051
1824.39518,0.95080
1822.46664,0.95107
1820.53811,0.95132
1818.60957,0.95142
1816.68104,0.95125
1814.75250,0.95090
1812.82396,0.95063
1810.89543,0.95035
1808.96689,0.94996
1807.03835,0.94957
1805.10982,0.94931
1803.18128,0.94928
1801.25275,0.94946
1799.32421,0.94975
1797.39567,0.95010
1795.46714,0.95051
1793.53860,0.95079
1791.61007,0.95042
1789.68153,0.94968
1787.75299,0.94912
1785.82446,0.94885
1783.89592,0.94908
1781.96738,0.94981
1780.03885,0.95060
1778.11031,0.95103
1776.18178,0.95124
1774.25324,0.95132
1772.32470,0.95101
1770.39617,0.95043
1768.46763,0.95005
1766.53910,0.94987
1764.61056,0.94996
1762.68202,0.95030
1760.75349,0.95070
1758.82495,0.95092
1756.89642,0.95084
1754.96788,0.95047
1753.03934,0.94986
1751.11081,0.94875
1749.18227,0.94757
1747.25373,0.94746
1745.32520,0.94781
1743.39666,0.94806
1741.46813,0.94822
1739.53959,0.94842
1737.61105,0.94862
1735.68252,0.94897
1733.75398,0.94952
1731.82545,0.94985
1729.89691,0.95012
1727.96837,0.95047
1726.03984,0.95082
1724.11130,0.95114
1722.18276,0.95147
1720.25423,0.95177
1718.32569,0.95204
1716.39716,0.95230
1714.46862,0.95240
1712.54008,0.95254
1710.61155,0.95265
1708.68301,0.95274
1706.75448,0.95283
1704.82594,0.95296
1702.89740,0.95318
1700.96887,0.95343
1699.04033,0.95376
1697.11180,0.95364
1695.18326,0.95308
1693.25472,0.95270
1691.32619,0.95242
1689.39765,0.95195
1687.46911,0.95145
1685.54058,0.95124
1683.61204,0.95067
1681.68351,0.94971
1679.75497,0.94873
1677.82643,0.94722
1675.89790,0.94360
1673.96936,0.93753
1672.04083,0.93115
1670.11229,0.91825
1668.18375,0.89946
1666.25522,0.88765
1664.32668,0.87717
1662.39814,0.86264
1660.46961,0.85187
1658.54107,0.84909
1656.61254,0.84991
1654.68400,0.85448
1652.75546,0.87056
1650.82693,0.88205
1648.89839,0.88870
1646.96986,0.90293
1645.04132,0.91615
1643.11278,0.92098
1641.18425,0.92404
1639.25571,0.92626
1637.32718,0.92653
1635.39864,0.92183
1633.47010,0.91570
1631.54157,0.91116
1629.61303,0.90592
1627.68449,0.89927
1625.75596,0.89190
1623.82742,0.87888
1621.89889,0.85863
1619.97035,0.84247
1618.04181,0.83076
1616.11328,0.82512
1614.18474,0.82655
1612.25621,0.82313
1610.32767,0.80690
1608.39913,0.78282
1606.47060,0.77510
1604.54206,0.79298
1602.61352,0.82451
1600.68499,0.85273
1598.75645,0.87074
1596.82792,0.88382
1594.89938,0.89549
1592.97084,0.90407
1591.04231,0.90822
1589.11377,0.90751
1587.18524,0.90021
1585.25670,0.88197
1583.32816,0.84487
1581.39963,0.78910
1579.47109,0.73309
1577.54256,0.70097
1575.61402,0.72573
1573.68548,0.76710
1571.75695,0.79422
1569.82841,0.82842
1567.89987,0.86122
1565.97134,0.87697
1564.04280,0.88693
1562.11427,0.89432
1560.18573,0.90132
1558.25719,0.91740
1556.32866,0.92592
1554.40012,0.92820
1552.47159,0.92925
1550.54305,0.92927
1548.61451,0.92882
1546.68598,0.92881
1544.75744,0.92988
1542.82890,0.93225
1540.90037,0.93578
1538.97183,0.93474
1537.04330,0.93373
1535.11476,0.93252
1533.18622,0.92973
1531.25769,0.92633
1529.32915,0.92238
1527.40062,0.91286
1525.47208,0.89237
1523.54354,0.85881
1521.61501,0.78650
1519.68647,0.72078
1517.75793,0.70287
1515.82940,0.70620
1513.90086,0.71809
1511.97233,0.73382
1510.04379,0.75081
1508.11525,0.76999
1506.18672,0.78827
1504.25818,0.78766
1502.32965,0.77980
1500.40111,0.76169
1498.47257,0.71821
1496.54404,0.64146
1494.61550,0.58355
1492.68697,0.55296
1490.75843,0.51977
1488.82989,0.47311
1486.90136,0.45593
1484.97282,0.46462
1483.04428,0.48647
1481.11575,0.52168
1479.18721,0.55870
1477.25868,0.59007
1475.33014,0.62086
1473.40160,0.65728
1471.47307,0.68831
1469.54453,0.70040
1467.61600,0.70596
1465.68746,0.71012
1463.75892,0.71341
1461.83039,0.71718
1459.90185,0.72294
1457.97331,0.73606
1456.04478,0.74714
1454.11624,0.73540
1452.18771,0.71743
1450.25917,0.71040
1448.33063,0.73250
1446.40210,0.77332
1444.47356,0.80000
1442.54503,0.80602
1440.61649,0.79429
1438.68795,0.76807
1436.75942,0.73265
1434.83088,0.71545
1432.90235,0.72139
1430.97381,0.73697
1429.04527,0.75959
1427.11674,0.78067
1425.18820,0.79716
1423.25966,0.80958
1421.33113,0.81494
1419.40259,0.81067
1417.47406,0.79259
1415.54552,0.76924
1413.61698,0.74906
1411.68845,0.74204
1409.75991,0.75682
1407.83138,0.78289
1405.90284,0.80996
1403.97430,0.83369
1402.04577,0.84845
1400.11723,0.85830
1398.18869,0.86716
1396.26016,0.87436
1394.33162,0.87996
1392.40309,0.88359
1390.47455,0.88544
1388.54601,0.88562
1386.61748,0.88255
1384.68894,0.87665
1382.76041,0.87062
1380.83187,0.86659
1378.90333,0.86700
1376.97480,0.87166
1375.04626,0.87949
1373.11773,0.88842
1371.18919,0.89453
1369.26065,0.89890
1367.33212,0.90250
1365.40358,0.90514
1363.47504,0.90767
1361.54651,0.91048
1359.61797,0.91264
1357.68944,0.91423
1355.76090,0.91589
1353.83236,0.91761
1351.90383,0.91911
1349.97529,0.92014
1348.04676,0.92059
1346.11822,0.92051
1344.18968,0.92004
1342.26115,0.91953
1340.33261,0.91919
1338.40407,0.91959
1336.47554,0.92086
1334.54700,0.92230
1332.61847,0.92347
1330.68993,0.92373
1328.76139,0.92199
1326.83286,0.91598
1324.90432,0.90272
1322.97579,0.88312
1321.04725,0.86644
1319.11871,0.86490
1317.19018,0.87861
1315.26164,0.89449
1313.33311,0.90423
1311.40457,0.90445
1309.47603,0.89230
1307.54750,0.86839
1305.61896,0.84344
1303.69042,0.83140
1301.76189,0.83490
1299.83335,0.84750
1297.90482,0.86249
1295.97628,0.87410
1294.04774,0.87634
1292.11921,0.86251
1290.19067,0.82351
1288.26214,0.75893
1286.33360,0.69876
1284.40506,0.68117
1282.47653,0.70799
1280.54799,0.75335
1278.61945,0.79447
1276.69092,0.82426
1274.76238,0.84528
1272.83385,0.86133
1270.90531,0.87430
1268.97677,0.88417
1267.04824,0.89088
1265.11970,0.89528
1263.19117,0.89833
1261.26263,0.90061
1259.33409,0.90149
1257.40556,0.89953
1255.47702,0.89400
1253.54849,0.88577
1251.61995,0.87611
1249.69141,0.86254
1247.76288,0.83593
1245.83434,0.78824
1243.90580,0.72825
1241.97727,0.67837
1240.04873,0.64953
1238.12020,0.63730
1236.19166,0.64082
1234.26312,0.66475
1232.33459,0.70478
1230.40605,0.74742
1228.47752,0.78332
1226.54898,0.81121
1224.62044,0.83263
1222.69191,0.84892
1220.76337,0.86133
1218.83483,0.87084
1216.90630,0.87786
1214.97776,0.88279
1213.04923,0.88648
1211.12069,0.88962
1209.19215,0.89224
1207.26362,0.89432
1205.33508,0.89622
1203.40655,0.89806
1201.47801,0.89933
1199.54947,0.89878
1197.62094,0.89413
1195.69240,0.88533
1193.76387,0.87999
1191.83533,0.88582
1189.90679,0.89860
1187.97826,0.90873
1186.04972,0.91218
1184.12118,0.90880
1182.19265,0.90135
1180.26411,0.89601
1178.33558,0.89161
1176.40704,0.87658
1174.47850,0.85124
1172.54997,0.83466
1170.62143,0.83746
1168.69290,0.85068
1166.76436,0.86219
1164.83582,0.86447
1162.90729,0.85070
1160.97875,0.81478
1159.05021,0.75965
1157.12168,0.70282
1155.19314,0.66510
1153.26461,0.65373
1151.33607,0.66112
1149.40753,0.67698
1147.47900,0.69701
1145.55046,0.72075
1143.62193,0.74648
1141.69339,0.77160
1139.76485,0.79465
1137.83632,0.81528
1135.90778,0.83330
1133.97924,0.84832
1132.05071,0.85987
1130.12217,0.86735
1128.19364,0.86978
1126.26510,0.86633
1124.33656,0.85714
1122.40803,0.84370
1120.47949,0.82825
1118.55096,0.81224
1116.62242,0.79604
1114.69388,0.78143
1112.76535,0.77316
1110.83681,0.77534
1108.90828,0.78664
1106.97974,0.80252
1105.05120,0.82029
1103.12267,0.83754
1101.19413,0.84867
1099.26559,0.84499
1097.33706,0.81912
1095.40852,0.77875
1093.47999,0.75074
1091.55145,0.75386
1089.62291,0.77911
1087.69438,0.80793
1085.76584,0.83124
1083.83731,0.84837
1081.90877,0.86115
1079.98023,0.87121
1078.05170,0.87924
1076.12316,0.88532
1074.19462,0.88937
1072.26609,0.89109
1070.33755,0.88949
1068.40902,0.88290
1066.48048,0.86931
1064.55194,0.84741
1062.62341,0.81835
1060.69487,0.78618
1058.76634,0.75534
1056.83780,0.72834
1054.90926,0.70716
1052.98073,0.69466
1051.05219,0.69195
1049.12366,0.69548
1047.19512,0.69843
1045.26658,0.69592
1043.33805,0.68997
1041.40951,0.68835
1039.48097,0.69662
1037.55244,0.71245
1035.62390,0.72967
1033.69537,0.74487
1031.76683,0.75818
1029.83829,0.77078
1027.90976,0.78293
1025.98122,0.79390
1024.05269,0.80316
1022.12415,0.81084
1020.19561,0.81737
1018.26708,0.82285
1016.33854,0.82715
1014.41000,0.83022
1012.48147,0.83217
1010.55293,0.83324
1008.62440,0.83407
1006.69586,0.83553
1004.76732,0.83778
1002.83879,0.83947
1000.91025,0.83824
998.98172,0.83348
997.05318,0.82779
995.12464,0.82438
993.19611,0.82508
991.26757,0.82912
989.33904,0.83291
987.41050,0.83287
985.48196,0.82585
983.55343,0.80597
981.62489,0.76347
979.69635,0.69244
977.76782,0.60515
975.83928,0.53199
973.91075,0.49559
971.98221,0.49223
970.05367,0.51005
968.12514,0.54633
966.19660,0.59693
964.26807,0.65008
962.33953,0.69565
960.41099,0.73062
958.48246,0.75660
956.55392,0.77621
954.62538,0.79153
952.69685,0.80385
950.76831,0.81393
948.83978,0.82232
946.91124,0.82950
944.98270,0.83596
943.05417,0.84200
941.12563,0.84771
939.19710,0.85295
937.26856,0.85758
935.34002,0.86165
933.41149,0.86539
931.48295,0.86897
929.55442,0.87238
927.62588,0.87562
925.69734,0.87860
923.76881,0.88124
921.84027,0.88358
919.91173,0.88561
917.98320,0.88713
916.05466,0.88793
914.12613,0.88789
912.19759,0.88674
910.26905,0.88377
908.34052,0.87669
906.41198,0.85878
904.48345,0.81710
902.55491,0.74473
900.62637,0.66352
898.69784,0.61379
896.76930,0.61167
894.84076,0.63639
892.91223,0.65914
890.98369,0.67328
889.05516,0.69243
887.12662,0.72131
885.19808,0.74641
883.26955,0.75105
881.34101,0.72975
879.41248,0.70399
877.48394,0.69704
875.55540,0.69032
873.62687,0.66882
871.69833,0.66669
869.76980,0.70345
867.84126,0.75064
865.91272,0.78391
863.98419,0.80369
862.05565,0.81632
860.12711,0.82549
858.19858,0.83244
856.27004,0.83741
854.34151,0.84089
852.41297,0.84386
850.48443,0.84720
848.55590,0.85108
846.62736,0.85515
844.69883,0.85916
842.77029,0.86295
840.84175,0.86633
838.91322,0.86925
836.98468,0.87165
835.05614,0.87353
833.12761,0.87504
831.19907,0.87627
829.27054,0.87702
827.34200,0.87722
825.41346,0.87724
823.48493,0.87733
821.55639,0.87756
819.62786,0.87800
817.69932,0.87869
815.77078,0.87947
813.84225,0.87992
811.91371,0.87970
809.98517,0.87849
808.05664,0.87632
806.12810,0.87330
804.19957,0.86915
802.27103,0.86279
800.34249,0.84966
798.41396,0.81561
796.48542,0.74511
794.55689,0.65666
792.62835,0.60688
790.69981,0.62811
788.77128,0.69286
786.84274,0.75679
784.91421,0.80087
782.98567,0.82626
781.05713,0.83703
779.12860,0.83445
777.20006,0.81268
775.27152,0.75831
773.34299,0.67962
771.41445,0.62356
769.48592,0.62481
767.55738,0.66624
765.62884,0.71399
763.70031,0.75277
761.77177,0.78051
759.84324,0.79790
757.91470,0.80469
755.98616,0.79431
754.05763,0.75891
752.12909,0.71428
750.20055,0.69828
748.27202,0.72384
746.34348,0.76484
744.41495,0.79575
742.48641,0.81175
740.55787,0.81547
738.62934,0.80977
736.70080,0.80280
734.77227,0.80487
732.84373,0.81597
730.91519,0.82761
728.98666,0.83525
727.05812,0.83975
725.12959,0.84273
723.20105,0.84511
721.27251,0.84739
719.34398,0.84971
717.41544,0.85187
715.48690,0.85377
713.55837,0.85541
711.62983,0.85655
709.70130,0.85688
707.77276,0.85588
705.84422,0.85210
703.91569,0.84137
701.98715,0.81981
700.05862,0.79568
698.13008,0.78560
696.20154,0.78973
694.27301,0.78962
692.34447,0.77008
690.41593,0.73116
688.48740,0.69806
686.55886,0.70322
684.63033,0.74111
682.70179,0.78113
680.77325,0.80764
678.84472,0.82278
676.91618,0.83175
674.98765,0.83751
673.05911,0.84126
671.13057,0.84355
669.20204,0.84498
667.27350,0.84613
665.34497,0.84694
663.41643,0.84717
661.48789,0.84685
659.55936,0.84606
657.63082,0.84474
655.70228,0.84217
653.77375,0.83430
651.84521,0.81067
649.91668,0.77369
647.98814,0.75719
646.05960,0.78152
644.13107,0.81981
642.20253,0.84173
640.27400,0.84501
638.34546,0.84072
636.41692,0.83565
634.48839,0.83061
632.55985,0.82554
630.63131,0.82081
628.70278,0.81650
626.77424,0.81222
624.84571,0.80754
622.91717,0.80220
620.98863,0.79601
619.06010,0.78915
617.13156,0.78198
615.20303,0.77467
613.27449,0.76703
611.34595,0.75861
609.41742,0.74897
607.48888,0.73786
605.56035,0.72511
603.63181,0.71098
601.70327,0.69593
599.77474,0.68037
597.84620,0.66640
595.91766,0.65687
593.98913,0.65648
592.06059,0.67383
590.13206,0.71025
588.20352,0.75048
586.27498,0.78074
584.34645,0.79999
582.41791,0.81366
580.48938,0.82139
578.56084,0.82022
576.63230,0.81199
574.70377,0.79924
572.77523,0.78252
570.84669,0.75928
568.91816,0.72997
566.98962,0.70504
565.06109,0.69360
563.13255,0.69210
561.20401,0.69255
559.27548,0.69074
557.34694,0.68623
555.41841,0.67989
553.48987,0.67256
551.56133,0.66487
549.63280,0.65737
547.70426,0.65087
545.77573,0.64564
543.84719,0.64151
541.91865,0.63872
539.99012,0.63756
538.06158,0.63826
536.13304,0.64048
534.20451,0.64377
532.27597,0.64790
530.34744,0.65284
528.41890,0.65858
526.49036,0.66536
524.56183,0.67277
522.63329,0.67972
520.70476,0.68673
518.77622,0.69449
516.84768,0.70225
514.91915,0.70878
512.99061,0.71447
511.06207,0.72023
509.13354,0.72636
507.20500,0.73315
505.27647,0.73973
503.34793,0.74589
501.41939,0.75240
499.49086,0.75698
497.56232,0.75590
495.63379,0.74605
493.70525,0.72994
491.77671,0.71935
489.84818,0.72309
487.91964,0.73542
485.99110,0.74941
484.06257,0.76218
482.13403,0.77169
480.20550,0.77889
478.27696,0.78549
476.34842,0.79028
474.41989,0.78917
472.49135,0.77487
470.56282,0.74941
468.63428,0.72592
466.70574,0.70715
464.77721,0.69101
462.84867,0.68222
460.92014,0.69078
458.99160,0.71669
457.06306,0.74609
455.13453,0.76208
453.20599,0.76818
451.27745,0.76895
449.34892,0.76381
447.42038,0.75482
445.49185,0.74950
443.56331,0.75635
441.63477,0.77159
439.70624,0.78271
437.77770,0.78782
435.84917,0.79088
433.92063,0.79413
431.99209,0.79831
430.06356,0.80246
428.13502,0.80436
426.20648,0.80386
424.27795,0.80209
422.34941,0.79919
420.42088,0.79159
418.49234,0.77287
416.56380,0.75889
414.63527,0.75044
412.70673,0.74099
410.77820,0.73609
408.84966,0.74060
406.92112,0.75030
404.99259,0.75852
403.06405,0.76290
401.13552,0.76291
399.20698,0.75672
