3997.85540,0.95800
3995.92686,0.95808
3993.99833,0.95800
3992.06979,0.95786
3990.14125,0.95780
3988.21272,0.95777
3986.28418,0.95777
3984.35565,0.95782
3982.42711,0.95794
3980.49857,0.95800
3978.57004,0.95797
3976.64150,0.95793
3974.71297,0.95788
3972.78443,0.95779
3970.85589,0.95768
3968.92736,0.95762
3966.99882,0.95765
3965.07029,0.95768
3963.14175,0.95770
3961.21321,0.95779
3959.28468,0.95790
3957.35614,0.95784
3955.42760,0.95773
3953.49907,0.95765
3951.57053,0.95744
3949.64200,0.95708
3947.71346,0.95693
3945.78492,0.95712
3943.85639,0.95728
3941.92785,0.95732
3939.99932,0.95743
3938.07078,0.95758
3936.14224,0.95766
3934.21371,0.95759
3932.28517,0.95739
3930.35663,0.95737
3928.42810,0.95757
3926.49956,0.95766
3924.57103,0.95760
3922.64249,0.95762
3920.71395,0.95766
3918.78542,0.95750
3916.85688,0.95738
3914.92835,0.95768
3912.99981,0.95819
3911.07127,0.95852
3909.14274,0.95860
3907.21420,0.95837
3905.28566,0.95769
3903.35713,0.95692
3901.42859,0.95671
3899.50006,0.95700
3897.57152,0.95761
3895.64298,0.95812
3893.71445,0.95807
3891.78591,0.95753
3889.85738,0.95741
3887.92884,0.95755
3886.00030,0.95731
3884.07177,0.95709
3882.14323,0.95717
3880.21470,0.95722
3878.28616,0.95753
3876.35762,0.95785
3874.42909,0.95766
3872.50055,0.95698
3870.57201,0.95616
3868.64348,0.95597
3866.71494,0.95640
3864.78641,0.95662
3862.85787,0.95681
3860.92933,0.95735
3859.00080,0.95777
3857.07226,0.95759
3855.14373,0.95649
3853.21519,0.95507
3851.28665,0.95572
3849.35812,0.95711
3847.42958,0.95795
3845.50104,0.95810
3843.57251,0.95770
3841.64397,0.95716
3839.71544,0.95671
3837.78690,0.95638
3835.85836,0.95653
3833.92983,0.95694
3832.00129,0.95728
3830.07276,0.95765
3828.14422,0.95790
3826.21568,0.95790
3824.28715,0.95780
3822.35861,0.95741
3820.43008,0.95690
3818.50154,0.95692
3816.57300,0.95698
3814.64447,0.95741
3812.71593,0.95824
3810.78739,0.95865
3808.85886,0.95835
3806.93032,0.95768
3805.00179,0.95745
3803.07325,0.95738
3801.14471,0.95717
3799.21618,0.95742
3797.28764,0.95777
3795.35911,0.95816
3793.43057,0.95880
3791.50203,0.95930
3789.57350,0.95940
3787.64496,0.95921
3785.71642,0.95885
3783.78789,0.95861
3781.85935,0.95863
3779.93082,0.95860
3778.00228,0.95855
3776.07374,0.95871
3774.14521,0.95889
3772.21667,0.95878
3770.28814,0.95829
3768.35960,0.95794
3766.43106,0.95803
3764.50253,0.95832
3762.57399,0.95858
3760.64546,0.95844
3758.71692,0.95810
3756.78838,0.95807
3754.85985,0.95798
3752.93131,0.95728
3751.00277,0.95613
3749.07424,0.95602
3747.14570,0.95658
3745.21717,0.95655
3743.28863,0.95629
3741.36009,0.95663
3739.43156,0.95678
3737.50302,0.95597
3735.57449,0.95446
3733.64595,0.95407
3731.71741,0.95499
3729.78888,0.95585
3727.86034,0.95619
3725.93180,0.95624
3724.00327,0.95647
3722.07473,0.95692
3720.14620,0.95749
3718.21766,0.95822
3716.28912,0.95884
3714.36059,0.95886
3712.43205,0.95787
3710.50352,0.95666
3708.57498,0.95676
3706.64644,0.95748
3704.71791,0.95799
3702.78937,0.95808
3700.86084,0.95805
3698.93230,0.95831
3697.00376,0.95863
3695.07523,0.95870
3693.14669,0.95837
3691.21815,0.95758
3689.28962,0.95693
3687.36108,0.95752
3685.43255,0.95854
3683.50401,0.95918
3681.57547,0.95929
3679.64694,0.95896
3677.71840,0.95824
3675.78987,0.95731
3673.86133,0.95736
3671.93279,0.95787
3670.00426,0.95804
3668.07572,0.95871
3666.14718,0.95966
3664.21865,0.96023
3662.29011,0.96046
3660.36158,0.96050
3658.43304,0.96017
3656.50450,0.95943
3654.57597,0.95907
3652.64743,0.95905
3650.71890,0.95828
3648.79036,0.95717
3646.86182,0.95793
3644.93329,0.95909
3643.00475,0.95969
3641.07622,0.95993
3639.14768,0.95996
3637.21914,0.95979
3635.29061,0.95947
3633.36207,0.95917
3631.43353,0.95878
3629.50500,0.95789
3627.57646,0.95744
3625.64793,0.95810
3623.71939,0.95871
3621.79085,0.95885
3619.86232,0.95859
3617.93378,0.95858
3616.00525,0.95905
3614.07671,0.95934
3612.14817,0.95930
3610.21964,0.95905
3608.29110,0.95864
3606.36256,0.95873
3604.43403,0.95927
3602.50549,0.95954
3600.57696,0.95942
3598.64842,0.95932
3596.71988,0.95924
3594.79135,0.95904
3592.86281,0.95903
3590.93428,0.95916
3589.00574,0.95906
3587.07720,0.95901
3585.14867,0.95960
3583.22013,0.96033
3581.29160,0.96074
3579.36306,0.96086
3577.43452,0.96082
3575.50599,0.96076
3573.57745,0.96076
3571.64891,0.96073
3569.72038,0.96044
3567.79184,0.95982
3565.86331,0.95959
3563.93477,0.96000
3562.00623,0.96036
3560.07770,0.96052
3558.14916,0.96066
3556.22063,0.96079
3554.29209,0.96081
3552.36355,0.96074
3550.43502,0.96067
3548.50648,0.96058
3546.57794,0.96041
3544.64941,0.96038
3542.72087,0.96059
3540.79234,0.96077
3538.86380,0.96081
3536.93526,0.96075
3535.00673,0.96071
3533.07819,0.96071
3531.14966,0.96066
3529.22112,0.96055
3527.29258,0.96052
3525.36405,0.96055
3523.43551,0.96054
3521.50697,0.96059
3519.57844,0.96071
3517.64990,0.96079
3515.72137,0.96084
3513.79283,0.96096
3511.86429,0.96105
3509.93576,0.96093
3508.00722,0.96085
3506.07869,0.96092
3504.15015,0.96086
3502.22161,0.96079
3500.29308,0.96090
3498.36454,0.96091
3496.43601,0.96075
3494.50747,0.96070
3492.57893,0.96079
3490.65040,0.96085
3488.72186,0.96089
3486.79332,0.96097
3484.86479,0.96097
3482.93625,0.96085
3481.00772,0.96071
3479.07918,0.96073
3477.15064,0.96086
3475.22211,0.96093
3473.29357,0.96095
3471.36504,0.96096
3469.43650,0.96098
3467.50796,0.96098
3465.57943,0.96097
3463.65089,0.96092
3461.72235,0.96088
3459.79382,0.96086
3457.86528,0.96086
3455.93675,0.96089
3454.00821,0.96097
3452.07967,0.96100
3450.15114,0.96091
3448.22260,0.96073
3446.29407,0.96065
3444.36553,0.96075
3442.43699,0.96087
3440.50846,0.96100
3438.57992,0.96112
3436.65139,0.96116
3434.72285,0.96115
3432.79431,0.96117
3430.86578,0.96121
3428.93724,0.96130
3427.00870,0.96136
3425.08017,0.96129
3423.15163,0.96116
3421.22310,0.96107
3419.29456,0.96110
3417.36602,0.96125
3415.43749,0.96131
3413.50895,0.96121
3411.58042,0.96115
3409.65188,0.96125
3407.72334,0.96133
3405.79481,0.96130
3403.86627,0.96122
3401.93773,0.96119
3400.00920,0.96122
3398.08066,0.96125
3396.15213,0.96124
3394.22359,0.96121
3392.29505,0.96115
3390.36652,0.96109
3388.43798,0.96113
3386.50945,0.96127
3384.58091,0.96130
3382.65237,0.96118
3380.72384,0.96109
3378.79530,0.96115
3376.86677,0.96127
3374.93823,0.96131
3373.00969,0.96124
3371.08116,0.96110
3369.15262,0.96103
3367.22408,0.96107
3365.29555,0.96117
3363.36701,0.96123
3361.43848,0.96120
3359.50994,0.96115
3357.58140,0.96115
3355.65287,0.96120
3353.72433,0.96130
3351.79580,0.96138
3349.86726,0.96136
3347.93872,0.96134
3346.01019,0.96135
3344.08165,0.96138
3342.15311,0.96142
3340.22458,0.96146
3338.29604,0.96146
3336.36751,0.96145
3334.43897,0.96148
3332.51043,0.96154
3330.58190,0.96160
3328.65336,0.96159
3326.72483,0.96151
3324.79629,0.96141
3322.86775,0.96134
3320.93922,0.96134
3319.01068,0.96143
3317.08215,0.96158
3315.15361,0.96168
3313.22507,0.96168
3311.29654,0.96165
3309.36800,0.96167
3307.43946,0.96173
3305.51093,0.96173
3303.58239,0.96167
3301.65386,0.96168
3299.72532,0.96174
3297.79678,0.96182
3295.86825,0.96191
3293.93971,0.96189
3292.01118,0.96175
3290.08264,0.96167
3288.15410,0.96171
3286.22557,0.96174
3284.29703,0.96172
3282.36849,0.96168
3280.43996,0.96168
3278.51142,0.96172
3276.58289,0.96175
3274.65435,0.96177
3272.72581,0.96180
3270.79728,0.96179
3268.86874,0.96178
3266.94021,0.96184
3265.01167,0.96186
3263.08313,0.96176
3261.15460,0.96169
3259.22606,0.96177
3257.29753,0.96190
3255.36899,0.96193
3253.44045,0.96185
3251.51192,0.96182
3249.58338,0.96196
3247.65484,0.96215
3245.72631,0.96219
3243.79777,0.96217
3241.86924,0.96220
3239.94070,0.96218
3238.01216,0.96209
3236.08363,0.96208
3234.15509,0.96214
3232.22656,0.96217
3230.29802,0.96216
3228.36948,0.96215
3226.44095,0.96217
3224.51241,0.96222
3222.58387,0.96231
3220.65534,0.96238
3218.72680,0.96235
3216.79827,0.96230
3214.86973,0.96240
3212.94119,0.96249
3211.01266,0.96237
3209.08412,0.96218
3207.15559,0.96216
3205.22705,0.96232
3203.29851,0.96253
3201.36998,0.96260
3199.44144,0.96258
3197.51290,0.96257
3195.58437,0.96254
3193.65583,0.96251
3191.72730,0.96248
3189.79876,0.96253
3187.87022,0.96263
3185.94169,0.96265
3184.01315,0.96256
3182.08462,0.96249
3180.15608,0.96253
3178.22754,0.96259
3176.29901,0.96259
3174.37047,0.96251
3172.44194,0.96245
3170.51340,0.96248
3168.58486,0.96245
3166.65633,0.96232
3164.72779,0.96223
3162.79925,0.96218
3160.87072,0.96216
3158.94218,0.96225
3157.01365,0.96244
3155.08511,0.96259
3153.15657,0.96263
3151.22804,0.96266
3149.29950,0.96273
3147.37097,0.96279
3145.44243,0.96282
3143.51389,0.96285
3141.58536,0.96291
3139.65682,0.96299
3137.72828,0.96300
3135.79975,0.96298
3133.87121,0.96300
3131.94268,0.96304
3130.01414,0.96305
3128.08560,0.96299
3126.15707,0.96291
3124.22853,0.96285
3122.30000,0.96288
3120.37146,0.96296
3118.44292,0.96296
3116.51439,0.96283
3114.58585,0.96265
3112.65732,0.96258
3110.72878,0.96269
3108.80024,0.96283
3106.87171,0.96280
3104.94317,0.96269
3103.01463,0.96267
3101.08610,0.96267
3099.15756,0.96259
3097.22903,0.96251
3095.30049,0.96253
3093.37195,0.96261
3091.44342,0.96267
3089.51488,0.96264
3087.58635,0.96251
3085.65781,0.96240
3083.72927,0.96232
3081.80074,0.96209
3079.87220,0.96171
3077.94366,0.96137
3076.01513,0.96111
3074.08659,0.96088
3072.15806,0.96073
3070.22952,0.96066
3068.30098,0.96060
3066.37245,0.96056
3064.44391,0.96047
3062.51538,0.96032
3060.58684,0.96015
3058.65830,0.96001
3056.72977,0.95985
3054.80123,0.95958
3052.87270,0.95919
3050.94416,0.95884
3049.01562,0.95884
3047.08709,0.95935
3045.15855,0.96015
3043.23001,0.96086
3041.30148,0.96119
3039.37294,0.96112
3037.44441,0.96075
3035.51587,0.96032
3033.58733,0.96009
3031.65880,0.96022
3029.73026,0.96062
3027.80173,0.96102
3025.87319,0.96124
3023.94465,0.96130
3022.01612,0.96131
3020.08758,0.96138
3018.15904,0.96141
3016.23051,0.96121
3014.30197,0.96075
3012.37344,0.96012
3010.44490,0.95937
3008.51636,0.95851
3006.58783,0.95768
3004.65929,0.95716
3002.73076,0.95710
3000.80222,0.95742
2998.87368,0.95796
2996.94515,0.95847
2995.01661,0.95885
2993.08808,0.95911
2991.15954,0.95910
2989.23100,0.95878
2987.30247,0.95832
2985.37393,0.95777
2983.44539,0.95728
2981.51686,0.95702
2979.58832,0.95678
2977.65979,0.95628
2975.73125,0.95543
2973.80271,0.95408
2971.87418,0.95215
2969.94564,0.95000
2968.01711,0.94791
2966.08857,0.94599
2964.16003,0.94417
2962.23150,0.94199
2960.30296,0.93916
2958.37442,0.93597
2956.44589,0.93262
2954.51735,0.92874
2952.58882,0.92375
2950.66028,0.91736
2948.73174,0.90970
2946.80321,0.90128
2944.87467,0.89295
2942.94614,0.88552
2941.01760,0.87929
2939.08906,0.87428
2937.16053,0.87050
2935.23199,0.86741
2933.30346,0.86405
2931.37492,0.86006
2929.44638,0.85600
2927.51785,0.85259
2925.58931,0.84999
2923.66077,0.84811
2921.73224,0.84736
2919.80370,0.84871
2917.87517,0.85287
2915.94663,0.85943
2914.01809,0.86702
2912.08956,0.87433
2910.16102,0.88078
2908.23249,0.88638
2906.30395,0.89121
2904.37541,0.89525
2902.44688,0.89875
2900.51834,0.90206
2898.58980,0.90540
2896.66127,0.90864
2894.73273,0.91161
2892.80420,0.91416
2890.87566,0.91642
2888.94712,0.91868
2887.01859,0.92103
2885.09005,0.92330
2883.16152,0.92532
2881.23298,0.92701
2879.30444,0.92824
2877.37591,0.92896
2875.44737,0.92923
2873.51883,0.92897
2871.59030,0.92799
2869.66176,0.92610
2867.73323,0.92305
2865.80469,0.91871
2863.87615,0.91336
2861.94762,0.90737
2860.01908,0.90050
2858.09055,0.89245
2856.16201,0.88377
2854.23347,0.87610
2852.30494,0.87156
2850.37640,0.87169
2848.44787,0.87657
2846.51933,0.88461
2844.59079,0.89313
2842.66226,0.90004
2840.73372,0.90543
2838.80518,0.91102
2836.87665,0.91737
2834.94811,0.92325
2833.01958,0.92781
2831.09104,0.93127
2829.16250,0.93404
2827.23397,0.93627
2825.30543,0.93813
2823.37690,0.93968
2821.44836,0.94091
2819.51982,0.94187
2817.59129,0.94270
2815.66275,0.94349
2813.73421,0.94421
2811.80568,0.94482
2809.87714,0.94532
2807.94861,0.94572
2806.02007,0.94604
2804.09153,0.94635
2802.16300,0.94670
2800.23446,0.94709
2798.30593,0.94744
2796.37739,0.94776
2794.44885,0.94813
2792.52032,0.94853
2790.59178,0.94893
2788.66325,0.94931
2786.73471,0.94969
2784.80617,0.95012
2782.87764,0.95058
2780.94910,0.95104
2779.02056,0.95146
2777.09203,0.95184
2775.16349,0.95218
2773.23496,0.95241
2771.30642,0.95253
2769.37788,0.95269
2767.44935,0.95295
2765.52081,0.95326
2763.59228,0.95357
2761.66374,0.95383
2759.73520,0.95406
2757.80667,0.95428
2755.87813,0.95441
2753.94959,0.95446
2752.02106,0.95461
2750.09252,0.95490
2748.16399,0.95514
2746.23545,0.95524
2744.30691,0.95526
2742.37838,0.95530
2740.44984,0.95537
2738.52131,0.95549
2736.59277,0.95561
2734.66423,0.95570
2732.73570,0.95581
2730.80716,0.95597
2728.87863,0.95607
2726.95009,0.95610
2725.02155,0.95611
2723.09302,0.95613
2721.16448,0.95614
2719.23594,0.95613
2717.30741,0.95611
2715.37887,0.95611
2713.45034,0.95612
2711.52180,0.95609
2709.59326,0.95608
2707.66473,0.95612
2705.73619,0.95615
2703.80766,0.95617
2701.87912,0.95619
2699.95058,0.95621
2698.02205,0.95615
2696.09351,0.95602
2694.16497,0.95591
2692.23644,0.95583
2690.30790,0.95576
2688.37937,0.95561
2686.45083,0.95540
2684.52229,0.95517
2682.59376,0.95503
2680.66522,0.95499
2678.73669,0.95495
2676.80815,0.95486
2674.87961,0.95467
2672.95108,0.95437
2671.02254,0.95404
2669.09401,0.95380
2667.16547,0.95369
2665.23693,0.95371
2663.30840,0.95383
2661.37986,0.95398
2659.45132,0.95403
2657.52279,0.95393
2655.59425,0.95379
2653.66572,0.95374
2651.73718,0.95392
2649.80864,0.95434
2647.88011,0.95483
2645.95157,0.95525
2644.02304,0.95561
2642.09450,0.95593
2640.16596,0.95619
2638.23743,0.95637
2636.30889,0.95649
2634.38035,0.95659
2632.45182,0.95662
2630.52328,0.95657
2628.59475,0.95653
2626.66621,0.95647
2624.73767,0.95635
2622.80914,0.95626
2620.88060,0.95625
2618.95207,0.95631
2617.02353,0.95647
2615.09499,0.95681
2613.16646,0.95728
2611.23792,0.95770
2609.30939,0.95789
2607.38085,0.95799
2605.45231,0.95819
2603.52378,0.95848
2601.59524,0.95870
2599.66670,0.95882
2597.73817,0.95895
2595.80963,0.95906
2593.88110,0.95912
2591.95256,0.95919
2590.02402,0.95931
2588.09549,0.95945
2586.16695,0.95961
2584.23842,0.95984
2582.30988,0.96009
2580.38134,0.96024
2578.45281,0.96032
2576.52427,0.96034
2574.59573,0.96027
2572.66720,0.96021
2570.73866,0.96024
2568.81013,0.96029
2566.88159,0.96040
2564.95305,0.96056
2563.02452,0.96062
2561.09598,0.96060
2559.16745,0.96063
2557.23891,0.96075
2555.31037,0.96090
2553.38184,0.96102
2551.45330,0.96102
2549.52476,0.96092
2547.59623,0.96079
2545.66769,0.96073
2543.73916,0.96071
2541.81062,0.96070
2539.88208,0.96068
2537.95355,0.96059
2536.02501,0.96053
2534.09648,0.96059
2532.16794,0.96061
2530.23940,0.96050
2528.31087,0.96045
2526.38233,0.96056
2524.45380,0.96072
2522.52526,0.96082
2520.59672,0.96079
2518.66819,0.96074
2516.73965,0.96075
2514.81111,0.96080
2512.88258,0.96093
2510.95404,0.96108
2509.02551,0.96118
2507.09697,0.96126
2505.16843,0.96128
2503.23990,0.96124
2501.31136,0.96122
2499.38283,0.96124
2497.45429,0.96121
2495.52575,0.96114
2493.59722,0.96110
2491.66868,0.96114
2489.74014,0.96131
2487.81161,0.96157
2485.88307,0.96181
2483.95454,0.96189
2482.02600,0.96180
2480.09746,0.96173
2478.16893,0.96178
2476.24039,0.96191
2474.31186,0.96206
2472.38332,0.96216
2470.45478,0.96218
2468.52625,0.96210
2466.59771,0.96191
2464.66918,0.96167
2462.74064,0.96149
2460.81210,0.96144
2458.88357,0.96142
2456.95503,0.96132
2455.02649,0.96120
2453.09796,0.96113
2451.16942,0.96110
2449.24089,0.96103
2447.31235,0.96095
2445.38381,0.96099
2443.45528,0.96120
2441.52674,0.96148
2439.59821,0.96171
2437.66967,0.96187
2435.74113,0.96201
2433.81260,0.96216
2431.88406,0.96230
2429.95552,0.96245
2428.02699,0.96262
2426.09845,0.96280
2424.16992,0.96294
2422.24138,0.96288
2420.31284,0.96270
2418.38431,0.96265
2416.45577,0.96267
2414.52724,0.96261
2412.59870,0.96260
2410.67016,0.96269
2408.74163,0.96279
2406.81309,0.96277
2404.88456,0.96272
2402.95602,0.96284
2401.02748,0.96299
2399.09895,0.96300
2397.17041,0.96298
2395.24187,0.96302
2393.31334,0.96304
2391.38480,0.96292
2389.45627,0.96266
2387.52773,0.96219
2385.59919,0.96132
2383.67066,0.95981
2381.74212,0.95761
2379.81359,0.95479
2377.88505,0.95142
2375.95651,0.94749
2374.02798,0.94304
2372.09944,0.93805
2370.17090,0.93255
2368.24237,0.92721
2366.31383,0.92275
2364.38530,0.91921
2362.45676,0.91671
2360.52822,0.91573
2358.59969,0.91664
2356.67115,0.91991
2354.74262,0.92506
2352.81408,0.93123
2350.88554,0.93686
2348.95701,0.93962
2347.02847,0.93853
2345.09994,0.93424
2343.17140,0.93005
2341.24286,0.92871
2339.31433,0.92923
2337.38579,0.93017
2335.45725,0.93116
2333.52872,0.93198
2331.60018,0.93258
2329.67165,0.93331
2327.74311,0.93423
2325.81457,0.93544
2323.88604,0.93713
2321.95750,0.93937
2320.02897,0.94215
2318.10043,0.94498
2316.17189,0.94719
2314.24336,0.94863
2312.31482,0.94957
2310.38628,0.95054
2308.45775,0.95184
2306.52921,0.95324
2304.60068,0.95452
2302.67214,0.95567
2300.74360,0.95664
2298.81507,0.95744
2296.88653,0.95817
2294.95800,0.95882
2293.02946,0.95944
2291.10092,0.96003
2289.17239,0.96056
2287.24385,0.96115
2285.31532,0.96181
2283.38678,0.96222
2281.45824,0.96224
2279.52971,0.96210
2277.60117,0.96203
2275.67263,0.96214
2273.74410,0.96245
2271.81556,0.96279
2269.88703,0.96298
2267.95849,0.96315
2266.02995,0.96342
2264.10142,0.96374
2262.17288,0.96398
2260.24435,0.96407
2258.31581,0.96429
2256.38727,0.96474
2254.45874,0.96496
2252.53020,0.96482
2250.60166,0.96479
2248.67313,0.96492
2246.74459,0.96487
2244.81606,0.96472
2242.88752,0.96480
2240.95898,0.96505
2239.03045,0.96526
2237.10191,0.96553
2235.17338,0.96578
2233.24484,0.96571
2231.31630,0.96543
2229.38777,0.96541
2227.45923,0.96561
2225.53070,0.96579
2223.60216,0.96607
2221.67362,0.96632
2219.74509,0.96625
2217.81655,0.96609
2215.88801,0.96604
2213.95948,0.96619
2212.03094,0.96652
2210.10241,0.96672
2208.17387,0.96664
2206.24533,0.96651
2204.31680,0.96645
2202.38826,0.96653
2200.45973,0.96673
2198.53119,0.96683
2196.60265,0.96686
2194.67412,0.96701
2192.74558,0.96714
2190.81704,0.96725
2188.88851,0.96752
2186.95997,0.96761
2185.03144,0.96735
2183.10290,0.96742
2181.17436,0.96781
2179.24583,0.96790
2177.31729,0.96779
2175.38876,0.96772
2173.46022,0.96757
2171.53168,0.96733
2169.60315,0.96703
2167.67461,0.96687
2165.74607,0.96686
2163.81754,0.96692
2161.88900,0.96780
2159.96047,0.96993
2158.03193,0.97162
2156.10339,0.97158
2154.17486,0.97085
2152.24632,0.97038
2150.31779,0.97023
2148.38925,0.97020
2146.46071,0.97014
2144.53218,0.97000
2142.60364,0.96990
2140.67511,0.96992
2138.74657,0.97013
2136.81803,0.97049
2134.88950,0.97074
2132.96096,0.97064
2131.03242,0.97033
2129.10389,0.97004
2127.17535,0.96964
2125.24682,0.96913
2123.31828,0.96881
2121.38974,0.96861
2119.46121,0.96831
2117.53267,0.96794
2115.60414,0.96774
2113.67560,0.96773
2111.74706,0.96774
2109.81853,0.96773
2107.88999,0.96788
2105.96145,0.96818
2104.03292,0.96831
2102.10438,0.96822
2100.17585,0.96825
2098.24731,0.96833
2096.31877,0.96825
2094.39024,0.96822
2092.46170,0.96831
2090.53317,0.96826
2088.60463,0.96796
2086.67609,0.96769
2084.74756,0.96759
2082.81902,0.96750
2080.89049,0.96745
2078.96195,0.96754
2077.03341,0.96765
2075.10488,0.96772
2073.17634,0.96792
2071.24780,0.96838
2069.31927,0.96881
2067.39073,0.96880
2065.46220,0.96840
2063.53366,0.96806
2061.60512,0.96803
2059.67659,0.96797
2057.74805,0.96787
2055.81952,0.96805
2053.89098,0.96806
2051.96244,0.96769
2050.03391,0.96787
2048.10537,0.96868
2046.17683,0.96933
2044.24830,0.96968
2042.31976,0.96982
2040.39123,0.96982
2038.46269,0.97001
2036.53415,0.97054
2034.60562,0.97123
2032.67708,0.97167
2030.74855,0.97194
2028.82001,0.97240
2026.89147,0.97278
2024.96294,0.97281
2023.03440,0.97265
2021.10587,0.97258
2019.17733,0.97286
2017.24879,0.97327
2015.32026,0.97342
2013.39172,0.97318
2011.46318,0.97288
2009.53465,0.97277
2007.60611,0.97265
2005.67758,0.97216
2003.74904,0.97146
2001.82050,0.97101
1999.89197,0.97086
1997.96343,0.97093
1996.03490,0.97113
1994.10636,0.97117
1992.17782,0.97116
1990.24929,0.97129
1988.32075,0.97132
1986.39221,0.97111
1984.46368,0.97061
1982.53514,0.96990
1980.60661,0.96956
1978.67807,0.97027
1976.74953,0.97123
1974.82100,0.97156
1972.89246,0.97190
1970.96393,0.97255
1969.03539,0.97267
1967.10685,0.97197
1965.17832,0.97140
1963.24978,0.97161
1961.32125,0.97219
1959.39271,0.97255
1957.46417,0.97247
1955.53564,0.97211
1953.60710,0.97176
1951.67856,0.97158
1949.75003,0.97162
1947.82149,0.97170
1945.89296,0.97134
1943.96442,0.97063
1942.03588,0.97037
1940.10735,0.97077
1938.17881,0.97113
1936.25028,0.97106
1934.32174,0.97087
1932.39320,0.97085
1930.46467,0.97094
1928.53613,0.97093
1926.60759,0.97076
1924.67906,0.97045
1922.75052,0.96998
1920.82199,0.96958
1918.89345,0.96936
1916.96491,0.96929
1915.03638,0.96946
1913.10784,0.96971
1911.17931,0.96983
1909.25077,0.96976
1907.32223,0.96965
1905.39370,0.96952
1903.46516,0.96931
1901.53663,0.96916
1899.60809,0.96915
1897.67955,0.96917
1895.75102,0.96922
1893.82248,0.96935
1891.89394,0.96944
1889.96541,0.96949
1888.03687,0.96967
1886.10834,0.96991
1884.17980,0.97010
1882.25126,0.97021
1880.32273,0.97018
1878.39419,0.97012
1876.46566,0.97014
1874.53712,0.97010
1872.60858,0.96998
1870.68005,0.96970
1868.75151,0.96930
1866.82297,0.96923
1864.89444,0.96950
1862.96590,0.96979
1861.03737,0.96993
1859.10883,0.96993
1857.18029,0.96991
1855.25176,0.96992
1853.32322,0.96994
1851.39469,0.96992
1849.46615,0.96976
1847.53761,0.96942
1845.60908,0.96899
1843.68054,0.96895
1841.75200,0.96944
1839.82347,0.96981
1837.89493,0.96986
1835.96640,0.96986
1834.03786,0.96981
1832.10932,0.96948
1830.18079,0.96897
1828.25225,0.96877
1826.32372,0.96881
1824.39518,0.96884
1822.46664,0.96896
1820.53811,0.96915
1818.60957,0.96932
1816.68104,0.96942
1814.75250,0.96934
1812.82396,0.96908
1810.89543,0.96879
1808.96689,0.96873
1807.03835,0.96884
1805.10982,0.96887
1803.18128,0.96870
1801.25275,0.96851
1799.32421,0.96858
1797.39567,0.96873
1795.46714,0.96861
1793.53860,0.96815
1791.61007,0.96795
1789.68153,0.96846
1787.75299,0.96897
1785.82446,0.96910
1783.89592,0.96902
1781.96738,0.96894
1780.03885,0.96897
1778.11031,0.96906
1776.18178,0.96886
1774.25324,0.96809
1772.32470,0.96725
1770.39617,0.96736
1768.46763,0.96801
1766.53910,0.96849
1764.61056,0.96864
1762.68202,0.96850
1760.75349,0.96839
1758.82495,0.96843
1756.89642,0.96847
1754.96788,0.96851
1753.03934,0.96824
1751.11081,0.96739
1749.18227,0.96670
1747.25373,0.96684
1745.32520,0.96707
1743.39666,0.96692
1741.46813,0.96648
1739.53959,0.96604
1737.61105,0.96574
1735.68252,0.96519
1733.75398,0.96445
1731.82545,0.96463
1729.89691,0.96531
1727.96837,0.96594
1726.03984,0.96643
1724.11130,0.96674
1722.18276,0.96687
1720.25423,0.96657
1718.32569,0.96554
1716.39716,0.96492
1714.46862,0.96583
1712.54008,0.96689
1710.61155,0.96744
1708.68301,0.96744
1706.75448,0.96695
1704.82594,0.96650
1702.89740,0.96649
1700.96887,0.96640
1699.04033,0.96596
1697.11180,0.96590
1695.18326,0.96663
1693.25472,0.96736
1691.32619,0.96758
1689.39765,0.96745
1687.46911,0.96707
1685.54058,0.96629
1683.61204,0.96588
1681.68351,0.96674
1679.75497,0.96758
1677.82643,0.96789
1675.89790,0.96773
1673.96936,0.96750
1672.04083,0.96734
1670.11229,0.96722
1668.18375,0.96772
1666.25522,0.96831
1664.32668,0.96838
1662.39814,0.96826
1660.46961,0.96850
1658.54107,0.96864
1656.61254,0.96817
1654.68400,0.96676
1652.75546,0.96497
1650.82693,0.96471
1648.89839,0.96421
1646.96986,0.96300
1645.04132,0.96297
1643.11278,0.96378
1641.18425,0.96427
1639.25571,0.96409
1637.32718,0.96286
1635.39864,0.96064
1633.47010,0.95884
1631.54157,0.95721
1629.61303,0.95568
1627.68449,0.95561
1625.75596,0.95727
1623.82742,0.95953
1621.89889,0.96139
1619.97035,0.96183
1618.04181,0.96044
1616.11328,0.95767
1614.18474,0.95607
1612.25621,0.95573
1610.32767,0.95608
1608.39913,0.95731
1606.47060,0.95899
1604.54206,0.96045
1602.61352,0.96143
1600.68499,0.96201
1598.75645,0.96223
1596.82792,0.96211
1594.89938,0.96167
1592.97084,0.96071
1591.04231,0.95866
1589.11377,0.95480
1587.18524,0.94836
1585.25670,0.93846
1583.32816,0.92629
1581.39963,0.91714
1579.47109,0.91515
1577.54256,0.92047
1575.61402,0.93156
1573.68548,0.94014
1571.75695,0.94480
1569.82841,0.94916
1567.89987,0.95311
1565.97134,0.95480
1564.04280,0.95445
1562.11427,0.95253
1560.18573,0.94681
1558.25719,0.93482
1556.32866,0.93338
1554.40012,0.93930
1552.47159,0.94591
1550.54305,0.95147
1548.61451,0.95548
1546.68598,0.95737
1544.75744,0.95745
1542.82890,0.95650
1540.90037,0.95577
1538.97183,0.95709
1537.04330,0.95841
1535.11476,0.95858
1533.18622,0.95810
1531.25769,0.95758
1529.32915,0.95656
1527.40062,0.95451
1525.47208,0.95212
1523.54354,0.95034
1521.61501,0.94926
1519.68647,0.94979
1517.75793,0.95144
1515.82940,0.95344
1513.90086,0.95478
1511.97233,0.95484
1510.04379,0.95352
1508.11525,0.94777
1506.18672,0.93196
1504.25818,0.91657
1502.32965,0.89878
1500.40111,0.87165
1498.47257,0.83917
1496.54404,0.82214
1494.61550,0.82932
1492.68697,0.84383
1490.75843,0.85878
1488.82989,0.86851
1486.90136,0.86607
1484.97282,0.85842
1483.04428,0.85250
1481.11575,0.85217
1479.18721,0.85749
1477.25868,0.86550
1475.33014,0.87430
1473.40160,0.88361
1471.47307,0.89125
1469.54453,0.89435
1467.61600,0.89586
1465.68746,0.89949
1463.75892,0.90574
1461.83039,0.90985
1459.90185,0.90935
1457.97331,0.89820
1456.04478,0.87463
1454.11624,0.85767
1452.18771,0.84362
1450.25917,0.82758
1448.33063,0.81261
1446.40210,0.80890
1444.47356,0.81963
1442.54503,0.83599
1440.61649,0.84888
1438.68795,0.85261
1436.75942,0.84381
1434.83088,0.83275
1432.90235,0.83369
1430.97381,0.84613
1429.04527,0.86486
1427.11674,0.88071
1425.18820,0.89152
1423.25966,0.89834
1421.33113,0.90099
1419.40259,0.90166
1417.47406,0.90396
1415.54552,0.90696
1413.61698,0.90849
1411.68845,0.90959
1409.75991,0.91151
1407.83138,0.91247
1405.90284,0.90966
1403.97430,0.90419
1402.04577,0.90128
1400.11723,0.90359
1398.18869,0.91040
1396.26016,0.91846
1394.33162,0.92564
1392.40309,0.93100
1390.47455,0.93444
1388.54601,0.93674
1386.61748,0.93830
1384.68894,0.93964
1382.76041,0.94143
1380.83187,0.94341
1378.90333,0.94461
1376.97480,0.94447
1375.04626,0.94269
1373.11773,0.93945
1371.18919,0.93579
1369.26065,0.93328
1367.33212,0.93420
1365.40358,0.93832
1363.47504,0.94321
1361.54651,0.94696
1359.61797,0.94855
1357.68944,0.94822
1355.76090,0.94659
1353.83236,0.94461
1351.90383,0.94327
1349.97529,0.94265
1348.04676,0.94222
1346.11822,0.94183
1344.18968,0.94156
1342.26115,0.94160
1340.33261,0.94282
1338.40407,0.94574
1336.47554,0.94882
1334.54700,0.95027
1332.61847,0.94916
1330.68993,0.94563
1328.76139,0.94148
1326.83286,0.93845
1324.90432,0.93572
1322.97579,0.92986
1321.04725,0.91614
1319.11871,0.89058
1317.19018,0.85832
1315.26164,0.83254
1313.33311,0.81813
1311.40457,0.81275
1309.47603,0.81860
1307.54750,0.83726
1305.61896,0.86059
1303.69042,0.87962
1301.76189,0.89313
1299.83335,0.90147
1297.90482,0.90385
1295.97628,0.90274
1294.04774,0.90348
1292.11921,0.90802
1290.19067,0.91369
1288.26214,0.91765
1286.33360,0.91948
1284.40506,0.92001
1282.47653,0.91948
1280.54799,0.91732
1278.61945,0.91278
1276.69092,0.90575
1274.76238,0.89701
1272.83385,0.88657
1270.90531,0.87243
1268.97677,0.85466
1267.04824,0.84010
1265.11970,0.83793
1263.19117,0.84982
1261.26263,0.86889
1259.33409,0.88817
1257.40556,0.90400
1255.47702,0.91464
1253.54849,0.91930
1251.61995,0.91766
1249.69141,0.91088
1247.76288,0.90323
1245.83434,0.90034
1243.90580,0.90407
1241.97727,0.91105
1240.04873,0.91678
1238.12020,0.91886
1236.19166,0.91648
1234.26312,0.90880
1232.33459,0.89345
1230.40605,0.86775
1228.47752,0.83756
1226.54898,0.82102
1224.62044,0.83040
1222.69191,0.85656
1220.76337,0.88246
1218.83483,0.89987
1216.90630,0.90913
1214.97776,0.91430
1213.04923,0.91931
1211.12069,0.92520
1209.19215,0.93069
1207.26362,0.93393
1205.33508,0.93309
1203.40655,0.92866
1201.47801,0.92538
1199.54947,0.92710
1197.62094,0.93179
1195.69240,0.93592
1193.76387,0.93886
1191.83533,0.94040
1189.90679,0.93925
1187.97826,0.93511
1186.04972,0.92894
1184.12118,0.92193
1182.19265,0.91688
1180.26411,0.91693
1178.33558,0.91937
1176.40704,0.91718
1174.47850,0.90927
1172.54997,0.90272
1170.62143,0.90200
1168.69290,0.90414
1166.76436,0.90758
1164.83582,0.91312
1162.90729,0.91786
1160.97875,0.91862
1159.05021,0.91551
1157.12168,0.90892
1155.19314,0.89711
1153.26461,0.87716
1151.33607,0.84878
1149.40753,0.81785
1147.47900,0.79420
1145.55046,0.78128
1143.62193,0.77057
1141.69339,0.75631
1139.76485,0.74971
1137.83632,0.76348
1135.90778,0.79167
1133.97924,0.81948
1132.05071,0.84076
1130.12217,0.85593
1128.19364,0.86506
1126.26510,0.86786
1124.33656,0.86586
1122.40803,0.86478
1120.47949,0.87038
1118.55096,0.88032
1116.62242,0.88764
1114.69388,0.88994
1112.76535,0.88817
1110.83681,0.88067
1108.90828,0.86787
1106.97974,0.86058
1105.05120,0.86850
1103.12267,0.88553
1101.19413,0.89977
1099.26559,0.90748
1097.33706,0.91051
1095.40852,0.91034
1093.47999,0.90740
1091.55145,0.90290
1089.62291,0.89952
1087.69438,0.89933
1085.76584,0.90149
1083.83731,0.90355
1081.90877,0.90386
1079.98023,0.90054
1078.05170,0.88979
1076.12316,0.87011
1074.19462,0.84947
1072.26609,0.84193
1070.33755,0.85284
1068.40902,0.87387
1066.48048,0.89434
1064.55194,0.90965
1062.62341,0.91965
1060.69487,0.92534
1058.76634,0.92716
1056.83780,0.92449
1054.90926,0.91810
1052.98073,0.91134
1051.05219,0.90492
1049.12366,0.89341
1047.19512,0.87249
1045.26658,0.84827
1043.33805,0.83343
1041.40951,0.83453
1039.48097,0.84901
1037.55244,0.86987
1035.62390,0.88931
1033.69537,0.90273
1031.76683,0.90941
1029.83829,0.90927
1027.90976,0.90115
1025.98122,0.88311
1024.05269,0.85634
1022.12415,0.83103
1020.19561,0.81995
1018.26708,0.82263
1016.33854,0.82459
1014.41000,0.81311
1012.48147,0.79133
1010.55293,0.77401
1008.62440,0.76895
1006.69586,0.77328
1004.76732,0.78453
1002.83879,0.80221
1000.91025,0.82382
998.98172,0.84559
997.05318,0.86467
995.12464,0.87973
993.19611,0.89061
991.26757,0.89796
989.33904,0.90291
987.41050,0.90646
985.48196,0.90916
983.55343,0.91125
981.62489,0.91293
979.69635,0.91448
977.76782,0.91629
975.83928,0.91857
973.91075,0.92129
971.98221,0.92423
970.05367,0.92708
968.12514,0.92963
966.19660,0.93173
964.26807,0.93319
962.33953,0.93391
960.41099,0.93423
958.48246,0.93470
956.55392,0.93522
954.62538,0.93562
952.69685,0.93660
950.76831,0.93862
948.83978,0.94092
946.91124,0.94262
944.98270,0.94336
943.05417,0.94279
941.12563,0.93975
939.19710,0.93323
937.26856,0.92589
935.34002,0.92347
933.41149,0.92720
931.48295,0.93226
929.55442,0.93452
927.62588,0.93317
925.69734,0.92862
923.76881,0.92130
921.84027,0.91217
919.91173,0.90320
917.98320,0.89549
916.05466,0.88740
914.12613,0.87608
912.19759,0.86131
910.26905,0.84683
908.34052,0.83731
906.41198,0.83501
904.48345,0.83942
902.55491,0.84773
900.62637,0.85502
898.69784,0.85728
896.76930,0.85517
894.84076,0.85157
892.91223,0.84736
890.98369,0.84499
889.05516,0.84962
887.12662,0.86236
885.19808,0.87886
883.26955,0.89415
881.34101,0.90547
879.41248,0.91288
877.48394,0.91801
875.55540,0.92211
873.62687,0.92494
871.69833,0.92450
869.76980,0.91730
867.84126,0.90332
865.91272,0.88929
863.98419,0.88101
862.05565,0.87967
860.12711,0.88428
858.19858,0.88742
856.27004,0.88181
854.34151,0.87392
852.41297,0.87508
850.48443,0.88416
848.55590,0.89275
846.62736,0.90019
844.69883,0.91082
842.77029,0.92291
840.84175,0.93182
838.91322,0.93699
836.98468,0.94008
835.05614,0.94198
833.12761,0.94293
831.19907,0.94260
829.27054,0.93984
827.34200,0.93238
825.41346,0.91742
823.48493,0.89591
821.55639,0.87683
819.62786,0.87047
817.69932,0.87847
815.77078,0.89489
813.84225,0.91149
811.91371,0.92262
809.98517,0.92811
808.05664,0.93032
806.12810,0.93085
804.19957,0.93017
802.27103,0.92799
800.34249,0.92338
798.41396,0.91626
796.48542,0.90891
794.55689,0.90485
792.62835,0.90575
790.69981,0.90958
788.77128,0.91250
786.84274,0.91126
784.91421,0.90808
782.98567,0.90945
781.05713,0.91198
779.12860,0.90242
777.20006,0.87982
775.27152,0.86490
773.34299,0.87368
771.41445,0.89563
769.48592,0.91289
767.55738,0.92156
765.62884,0.92587
763.70031,0.92759
761.77177,0.92338
759.84324,0.90968
757.91470,0.89213
755.98616,0.88153
754.05763,0.87902
752.12909,0.88004
750.20055,0.88349
748.27202,0.88679
746.34348,0.88524
744.41495,0.87771
742.48641,0.86474
740.55787,0.84359
738.62934,0.81468
736.70080,0.79057
734.77227,0.78588
732.84373,0.80071
730.91519,0.82359
728.98666,0.84565
727.05812,0.86440
725.12959,0.87920
723.20105,0.88952
721.27251,0.89524
719.34398,0.89637
717.41544,0.89245
715.48690,0.88172
713.55837,0.86515
711.62983,0.84849
709.70130,0.83462
707.77276,0.82553
705.84422,0.82775
703.91569,0.84168
701.98715,0.85869
700.05862,0.87269
698.13008,0.88321
696.20154,0.89158
694.27301,0.89849
692.34447,0.90418
690.41593,0.90898
688.48740,0.91312
686.55886,0.91655
684.63033,0.91913
682.70179,0.92107
680.77325,0.92257
678.84472,0.92394
676.91618,0.92549
674.98765,0.92683
673.05911,0.92659
671.13057,0.92277
669.20204,0.90887
667.27350,0.88365
665.34497,0.86873
663.41643,0.86574
661.48789,0.87223
659.55936,0.88556
657.63082,0.89818
655.70228,0.90138
653.77375,0.89017
651.84521,0.87518
649.91668,0.87262
647.98814,0.87894
646.05960,0.88254
644.13107,0.88533
642.20253,0.89109
640.27400,0.89433
638.34546,0.88893
636.41692,0.88000
634.48839,0.87973
632.55985,0.89097
630.63131,0.90579
628.70278,0.91776
626.77424,0.92587
624.84571,0.93138
622.91717,0.93546
620.98863,0.93832
619.06010,0.94012
617.13156,0.94185
615.20303,0.94406
613.27449,0.94604
611.34595,0.94729
609.41742,0.94799
607.48888,0.94836
605.56035,0.94851
603.63181,0.94821
601.70327,0.94673
599.77474,0.94307
597.84620,0.93541
595.91766,0.92115
593.98913,0.90007
592.06059,0.88006
590.13206,0.87200
588.20352,0.87158
586.27498,0.85931
584.34645,0.82445
582.41791,0.78424
580.48938,0.76449
578.56084,0.76751
576.63230,0.78211
574.70377,0.80599
572.77523,0.83640
570.84669,0.86522
568.91816,0.88694
566.98962,0.90095
565.06109,0.90969
563.13255,0.91575
561.20401,0.92048
559.27548,0.92419
557.34694,0.92720
555.41841,0.92960
553.48987,0.93083
551.56133,0.93092
549.63280,0.93087
547.70426,0.93084
545.77573,0.92795
543.84719,0.91615
541.91865,0.88997
539.99012,0.85677
538.06158,0.83863
536.13304,0.84491
534.20451,0.86126
532.27597,0.87478
530.34744,0.88498
528.41890,0.89140
526.49036,0.89011
524.56183,0.88339
522.63329,0.88067
520.70476,0.88479
518.77622,0.89086
516.84768,0.89320
514.91915,0.89028
512.99061,0.88499
511.06207,0.88285
509.13354,0.88802
507.20500,0.89750
505.27647,0.90325
503.34793,0.89644
501.41939,0.86696
499.49086,0.82497
497.56232,0.80525
495.63379,0.82237
493.70525,0.85147
491.77671,0.86593
489.84818,0.86773
487.91964,0.86993
485.99110,0.87805
484.06257,0.88961
482.13403,0.89917
480.20550,0.90507
478.27696,0.90855
476.34842,0.90984
474.41989,0.90933
472.49135,0.90854
470.56282,0.90820
468.63428,0.90855
466.70574,0.91021
464.77721,0.91226
462.84867,0.91328
460.92014,0.91302
458.99160,0.91010
457.06306,0.90245
455.13453,0.89259
453.20599,0.88593
451.27745,0.88822
449.34892,0.89787
447.42038,0.90572
445.49185,0.90790
443.56331,0.90773
441.63477,0.90721
439.70624,0.90518
437.77770,0.90398
435.84917,0.90766
433.92063,0.91438
431.99209,0.91878
430.06356,0.91922
428.13502,0.91718
426.20648,0.91425
424.27795,0.91165
422.34941,0.91059
420.42088,0.91157
418.49234,0.91678
416.56380,0.92280
414.63527,0.92459
412.70673,0.92428
410.77820,0.92447
408.84966,0.92500
406.92112,0.92416
404.99259,0.92233
403.06405,0.92058
401.13552,0.91687
399.20698,0.90697
