3997.85540,0.91232
3995.92686,0.91243
3993.99833,0.91238
3992.06979,0.91235
3990.14125,0.91235
3988.21272,0.91230
3986.28418,0.91222
3984.35565,0.91222
3982.42711,0.91235
3980.49857,0.91251
3978.57004,0.91258
3976.64150,0.91263
3974.71297,0.91268
3972.78443,0.91267
3970.85589,0.91258
3968.92736,0.91252
3966.99882,0.91255
3965.07029,0.91261
3963.14175,0.91270
3961.21321,0.91284
3959.28468,0.91298
3957.35614,0.91300
3955.42760,0.91294
3953.49907,0.91291
3951.57053,0.91285
3949.64200,0.91268
3947.71346,0.91252
3945.78492,0.91249
3943.85639,0.91252
3941.92785,0.91260
3939.99932,0.91272
3938.07078,0.91279
3936.14224,0.91278
3934.21371,0.91264
3932.28517,0.91245
3930.35663,0.91247
3928.42810,0.91259
3926.49956,0.91258
3924.57103,0.91248
3922.64249,0.91247
3920.71395,0.91247
3918.78542,0.91231
3916.85688,0.91220
3914.92835,0.91247
3912.99981,0.91296
3911.07127,0.91329
3909.14274,0.91334
3907.21420,0.91307
3905.28566,0.91234
3903.35713,0.91156
3901.42859,0.91139
3899.50006,0.91165
3897.57152,0.91208
3895.64298,0.91243
3893.71445,0.91240
3891.78591,0.91207
3889.85738,0.91208
3887.92884,0.91222
3886.00030,0.91195
3884.07177,0.91175
3882.14323,0.91185
3880.21470,0.91195
3878.28616,0.91226
3876.35762,0.91252
3874.42909,0.91232
3872.50055,0.91178
3870.57201,0.91122
3868.64348,0.91122
3866.71494,0.91172
3864.78641,0.91194
3862.85787,0.91192
3860.92933,0.91225
3859.00080,0.91260
3857.07226,0.91239
3855.14373,0.91123
3853.21519,0.91006
3851.28665,0.91115
3849.35812,0.91258
3847.42958,0.91329
3845.50104,0.91331
3843.57251,0.91283
3841.64397,0.91222
3839.71544,0.91174
3837.78690,0.91146
3835.85836,0.91164
3833.92983,0.91206
3832.00129,0.91240
3830.07276,0.91276
3828.14422,0.91301
3826.21568,0.91297
3824.28715,0.91280
3822.35861,0.91236
3820.43008,0.91188
3818.50154,0.91211
3816.57300,0.91240
3814.64447,0.91274
3812.71593,0.91334
3810.78739,0.91367
3808.85886,0.91341
3806.93032,0.91279
3805.00179,0.91261
3803.07325,0.91257
3801.14471,0.91229
3799.21618,0.91245
3797.28764,0.91284
3795.35911,0.91321
3793.43057,0.91371
3791.50203,0.91413
3789.57350,0.91428
3787.64496,0.91418
3785.71642,0.91391
3783.78789,0.91375
3781.85935,0.91382
3779.93082,0.91381
3778.00228,0.91370
3776.07374,0.91378
3774.14521,0.91396
3772.21667,0.91394
3770.28814,0.91353
3768.35960,0.91323
3766.43106,0.91336
3764.50253,0.91358
3762.57399,0.91373
3760.64546,0.91360
3758.71692,0.91322
3756.78838,0.91314
3754.85985,0.91317
3752.93131,0.91271
3751.00277,0.91157
3749.07424,0.91119
3747.14570,0.91174
3745.21717,0.91194
3743.28863,0.91175
3741.36009,0.91189
3739.43156,0.91194
3737.50302,0.91118
3735.57449,0.90970
3733.64595,0.90913
3731.71741,0.90989
3729.78888,0.91066
3727.86034,0.91084
3725.93180,0.91070
3724.00327,0.91094
3722.07473,0.91165
3720.14620,0.91247
3718.21766,0.91322
3716.28912,0.91371
3714.36059,0.91362
3712.43205,0.91252
3710.50352,0.91124
3708.57498,0.91143
3706.64644,0.91221
3704.71791,0.91265
3702.78937,0.91259
3700.86084,0.91244
3698.93230,0.91264
3697.00376,0.91296
3695.07523,0.91310
3693.14669,0.91284
3691.21815,0.91212
3689.28962,0.91160
3687.36108,0.91220
3685.43255,0.91309
3683.50401,0.91356
3681.57547,0.91355
3679.64694,0.91315
3677.71840,0.91233
3675.78987,0.91132
3673.86133,0.91137
3671.93279,0.91181
3670.00426,0.91181
3668.07572,0.91226
3666.14718,0.91303
3664.21865,0.91347
3662.29011,0.91365
3660.36158,0.91374
3658.43304,0.91357
3656.50450,0.91303
3654.57597,0.91266
3652.64743,0.91244
3650.71890,0.91162
3648.79036,0.91059
3646.86182,0.91103
3644.93329,0.91196
3643.00475,0.91252
3641.07622,0.91264
3639.14768,0.91250
3637.21914,0.91220
3635.29061,0.91178
3633.36207,0.91138
3631.43353,0.91098
3629.50500,0.91010
3627.57646,0.90955
3625.64793,0.91014
3623.71939,0.91078
3621.79085,0.91088
3619.86232,0.91051
3617.93378,0.91049
3616.00525,0.91100
3614.07671,0.91130
3612.14817,0.91122
3610.21964,0.91083
3608.29110,0.91033
3606.36256,0.91035
3604.43403,0.91077
3602.50549,0.91089
3600.57696,0.91066
3598.64842,0.91049
3596.71988,0.91040
3594.79135,0.91027
3592.86281,0.91032
3590.93428,0.91047
3589.00574,0.91027
3587.07720,0.90998
3585.14867,0.91038
3583.22013,0.91097
3581.29160,0.91119
3579.36306,0.91111
3577.43452,0.91095
3575.50599,0.91083
3573.57745,0.91082
3571.64891,0.91077
3569.72038,0.91045
3567.79184,0.90977
3565.86331,0.90940
3563.93477,0.90973
3562.00623,0.91008
3560.07770,0.91021
3558.14916,0.91018
3556.22063,0.91003
3554.29209,0.90982
3552.36355,0.90965
3550.43502,0.90953
3548.50648,0.90934
3546.57794,0.90907
3544.64941,0.90900
3542.72087,0.90918
3540.79234,0.90927
3538.86380,0.90916
3536.93526,0.90898
3535.00673,0.90883
3533.07819,0.90874
3531.14966,0.90858
3529.22112,0.90828
3527.29258,0.90801
3525.36405,0.90790
3523.43551,0.90788
3521.50697,0.90792
3519.57844,0.90795
3517.64990,0.90794
3515.72137,0.90795
3513.79283,0.90802
3511.86429,0.90800
3509.93576,0.90780
3508.00722,0.90765
3506.07869,0.90760
3504.15015,0.90746
3502.22161,0.90735
3500.29308,0.90740
3498.36454,0.90738
3496.43601,0.90723
3494.50747,0.90717
3492.57893,0.90726
3490.65040,0.90735
3488.72186,0.90732
3486.79332,0.90727
3484.86479,0.90727
3482.93625,0.90717
3481.00772,0.90699
3479.07918,0.90692
3477.15064,0.90695
3475.22211,0.90697
3473.29357,0.90693
3471.36504,0.90680
3469.43650,0.90664
3467.50796,0.90657
3465.57943,0.90661
3463.65089,0.90667
3461.72235,0.90662
3459.79382,0.90652
3457.86528,0.90649
3455.93675,0.90651
3454.00821,0.90654
3452.07967,0.90658
3450.15114,0.90652
3448.22260,0.90639
3446.29407,0.90634
3444.36553,0.90642
3442.43699,0.90649
3440.50846,0.90652
3438.57992,0.90660
3436.65139,0.90672
3434.72285,0.90680
3432.79431,0.90673
3430.86578,0.90658
3428.93724,0.90649
3427.00870,0.90653
3425.08017,0.90658
3423.15163,0.90648
3421.22310,0.90631
3419.29456,0.90624
3417.36602,0.90630
3415.43749,0.90633
3413.50895,0.90629
3411.58042,0.90627
3409.65188,0.90631
3407.72334,0.90631
3405.79481,0.90620
3403.86627,0.90606
3401.93773,0.90601
3400.00920,0.90604
3398.08066,0.90605
3396.15213,0.90598
3394.22359,0.90587
3392.29505,0.90572
3390.36652,0.90564
3388.43798,0.90573
3386.50945,0.90592
3384.58091,0.90604
3382.65237,0.90600
3380.72384,0.90588
3378.79530,0.90577
3376.86677,0.90573
3374.93823,0.90577
3373.00969,0.90580
3371.08116,0.90571
3369.15262,0.90561
3367.22408,0.90561
3365.29555,0.90567
3363.36701,0.90571
3361.43848,0.90572
3359.50994,0.90568
3357.58140,0.90566
3355.65287,0.90572
3353.72433,0.90579
3351.79580,0.90579
3349.86726,0.90573
3347.93872,0.90572
3346.01019,0.90578
3344.08165,0.90583
3342.15311,0.90584
3340.22458,0.90586
3338.29604,0.90588
3336.36751,0.90593
3334.43897,0.90607
3332.51043,0.90624
3330.58190,0.90635
3328.65336,0.90642
3326.72483,0.90642
3324.79629,0.90638
3322.86775,0.90637
3320.93922,0.90644
3319.01068,0.90657
3317.08215,0.90672
3315.15361,0.90687
3313.22507,0.90702
3311.29654,0.90715
3309.36800,0.90724
3307.43946,0.90731
3305.51093,0.90736
3303.58239,0.90738
3301.65386,0.90736
3299.72532,0.90737
3297.79678,0.90743
3295.86825,0.90755
3293.93971,0.90771
3292.01118,0.90776
3290.08264,0.90766
3288.15410,0.90759
3286.22557,0.90766
3284.29703,0.90773
3282.36849,0.90773
3280.43996,0.90775
3278.51142,0.90780
3276.58289,0.90777
3274.65435,0.90771
3272.72581,0.90776
3270.79728,0.90789
3268.86874,0.90798
3266.94021,0.90800
3265.01167,0.90798
3263.08313,0.90795
3261.15460,0.90796
3259.22606,0.90806
3257.29753,0.90819
3255.36899,0.90824
3253.44045,0.90825
3251.51192,0.90834
3249.58338,0.90853
3247.65484,0.90872
3245.72631,0.90881
3243.79777,0.90884
3241.86924,0.90891
3239.94070,0.90892
3238.01216,0.90888
3236.08363,0.90895
3234.15509,0.90909
3232.22656,0.90917
3230.29802,0.90921
3228.36948,0.90923
3226.44095,0.90923
3224.51241,0.90926
3222.58387,0.90935
3220.65534,0.90942
3218.72680,0.90942
3216.79827,0.90941
3214.86973,0.90949
3212.94119,0.90957
3211.01266,0.90957
3209.08412,0.90957
3207.15559,0.90959
3205.22705,0.90963
3203.29851,0.90974
3201.36998,0.90980
3199.44144,0.90979
3197.51290,0.90979
3195.58437,0.90985
3193.65583,0.90993
3191.72730,0.90999
3189.79876,0.91005
3187.87022,0.91007
3185.94169,0.91002
3184.01315,0.90996
3182.08462,0.91001
3180.15608,0.91011
3178.22754,0.91015
3176.29901,0.91018
3174.37047,0.91018
3172.44194,0.91016
3170.51340,0.91018
3168.58486,0.91018
3166.65633,0.91015
3164.72779,0.91017
3162.79925,0.91020
3160.87072,0.91028
3158.94218,0.91050
3157.01365,0.91072
3155.08511,0.91079
3153.15657,0.91072
3151.22804,0.91061
3149.29950,0.91055
3147.37097,0.91049
3145.44243,0.91035
3143.51389,0.91025
3141.58536,0.91027
3139.65682,0.91036
3137.72828,0.91044
3135.79975,0.91054
3133.87121,0.91070
3131.94268,0.91085
3130.01414,0.91094
3128.08560,0.91100
3126.15707,0.91097
3124.22853,0.91092
3122.30000,0.91096
3120.37146,0.91107
3118.44292,0.91112
3116.51439,0.91107
3114.58585,0.91094
3112.65732,0.91086
3110.72878,0.91091
3108.80024,0.91100
3106.87171,0.91094
3104.94317,0.91074
3103.01463,0.91055
3101.08610,0.91037
3099.15756,0.91017
3097.22903,0.90991
3095.30049,0.90961
3093.37195,0.90935
3091.44342,0.90901
3089.51488,0.90846
3087.58635,0.90774
3085.65781,0.90700
3083.72927,0.90626
3081.80074,0.90545
3079.87220,0.90463
3077.94366,0.90381
3076.01513,0.90304
3074.08659,0.90236
3072.15806,0.90171
3070.22952,0.90101
3068.30098,0.90018
3066.37245,0.89914
3064.44391,0.89794
3062.51538,0.89673
3060.58684,0.89554
3058.65830,0.89437
3056.72977,0.89344
3054.80123,0.89296
3052.87270,0.89300
3050.94416,0.89354
3049.01562,0.89449
3047.08709,0.89578
3045.15855,0.89725
3043.23001,0.89865
3041.30148,0.89982
3039.37294,0.90077
3037.44441,0.90151
3035.51587,0.90202
3033.58733,0.90225
3031.65880,0.90216
3029.73026,0.90180
3027.80173,0.90133
3025.87319,0.90088
3023.94465,0.90053
3022.01612,0.90030
3020.08758,0.90024
3018.15904,0.90030
3016.23051,0.90042
3014.30197,0.90050
3012.37344,0.90045
3010.44490,0.90017
3008.51636,0.89964
3006.58783,0.89903
3004.65929,0.89857
3002.73076,0.89830
3000.80222,0.89825
2998.87368,0.89837
2996.94515,0.89840
2995.01661,0.89826
2993.08808,0.89796
2991.15954,0.89736
2989.23100,0.89660
2987.30247,0.89598
2985.37393,0.89545
2983.44539,0.89487
2981.51686,0.89433
2979.58832,0.89390
2977.65979,0.89347
2975.73125,0.89294
2973.80271,0.89216
2971.87418,0.89121
2969.94564,0.89051
2968.01711,0.89024
2966.08857,0.89023
2964.16003,0.89030
2962.23150,0.89029
2960.30296,0.89017
2958.37442,0.89008
2956.44589,0.89012
2954.51735,0.89031
2952.58882,0.89047
2950.66028,0.89046
2948.73174,0.89044
2946.80321,0.89039
2944.87467,0.89006
2942.94614,0.88936
2941.01760,0.88846
2939.08906,0.88746
2937.16053,0.88648
2935.23199,0.88570
2933.30346,0.88521
2931.37492,0.88500
2929.44638,0.88501
2927.51785,0.88519
2925.58931,0.88554
2923.66077,0.88607
2921.73224,0.88682
2919.80370,0.88774
2917.87517,0.88873
2915.94663,0.88970
2914.01809,0.89056
2912.08956,0.89120
2910.16102,0.89165
2908.23249,0.89208
2906.30395,0.89262
2904.37541,0.89326
2902.44688,0.89391
2900.51834,0.89459
2898.58980,0.89540
2896.66127,0.89625
2894.73273,0.89700
2892.80420,0.89759
2890.87566,0.89812
2888.94712,0.89870
2887.01859,0.89928
2885.09005,0.89976
2883.16152,0.90015
2881.23298,0.90052
2879.30444,0.90082
2877.37591,0.90104
2875.44737,0.90130
2873.51883,0.90144
2871.59030,0.90125
2869.66176,0.90093
2867.73323,0.90073
2865.80469,0.90048
2863.87615,0.90010
2861.94762,0.89975
2860.01908,0.89939
2858.09055,0.89887
2856.16201,0.89829
2854.23347,0.89793
2852.30494,0.89799
2850.37640,0.89847
2848.44787,0.89921
2846.51933,0.89994
2844.59079,0.90046
2842.66226,0.90081
2840.73372,0.90105
2838.80518,0.90119
2836.87665,0.90116
2834.94811,0.90103
2833.01958,0.90111
2831.09104,0.90156
2829.16250,0.90228
2827.23397,0.90318
2825.30543,0.90424
2823.37690,0.90536
2821.44836,0.90633
2819.51982,0.90705
2817.59129,0.90758
2815.66275,0.90798
2813.73421,0.90836
2811.80568,0.90872
2809.87714,0.90900
2807.94861,0.90912
2806.02007,0.90922
2804.09153,0.90940
2802.16300,0.90962
2800.23446,0.90988
2798.30593,0.91009
2796.37739,0.91023
2794.44885,0.91039
2792.52032,0.91054
2790.59178,0.91065
2788.66325,0.91078
2786.73471,0.91091
2784.80617,0.91100
2782.87764,0.91109
2780.94910,0.91125
2779.02056,0.91141
2777.09203,0.91153
2775.16349,0.91168
2773.23496,0.91173
2771.30642,0.91167
2769.37788,0.91166
2767.44935,0.91174
2765.52081,0.91184
2763.59228,0.91194
2761.66374,0.91202
2759.73520,0.91212
2757.80667,0.91225
2755.87813,0.91237
2753.94959,0.91237
2752.02106,0.91235
2750.09252,0.91245
2748.16399,0.91257
2746.23545,0.91259
2744.30691,0.91255
2742.37838,0.91257
2740.44984,0.91270
2738.52131,0.91287
2736.59277,0.91294
2734.66423,0.91290
2732.73570,0.91291
2730.80716,0.91302
2728.87863,0.91310
2726.95009,0.91313
2725.02155,0.91315
2723.09302,0.91317
2721.16448,0.91322
2719.23594,0.91331
2717.30741,0.91337
2715.37887,0.91340
2713.45034,0.91341
2711.52180,0.91344
2709.59326,0.91349
2707.66473,0.91357
2705.73619,0.91362
2703.80766,0.91363
2701.87912,0.91366
2699.95058,0.91373
2698.02205,0.91373
2696.09351,0.91365
2694.16497,0.91355
2692.23644,0.91351
2690.30790,0.91350
2688.37937,0.91345
2686.45083,0.91335
2684.52229,0.91325
2682.59376,0.91319
2680.66522,0.91318
2678.73669,0.91317
2676.80815,0.91316
2674.87961,0.91318
2672.95108,0.91329
2671.02254,0.91339
2669.09401,0.91342
2667.16547,0.91336
2665.23693,0.91329
2663.30840,0.91326
2661.37986,0.91332
2659.45132,0.91337
2657.52279,0.91335
2655.59425,0.91329
2653.66572,0.91323
2651.73718,0.91325
2649.80864,0.91334
2647.88011,0.91344
2645.95157,0.91346
2644.02304,0.91348
2642.09450,0.91357
2640.16596,0.91373
2638.23743,0.91385
2636.30889,0.91393
2634.38035,0.91399
2632.45182,0.91407
2630.52328,0.91424
2628.59475,0.91443
2626.66621,0.91449
2624.73767,0.91443
2622.80914,0.91441
2620.88060,0.91446
2618.95207,0.91455
2617.02353,0.91471
2615.09499,0.91491
2613.16646,0.91511
2611.23792,0.91524
2609.30939,0.91529
2607.38085,0.91537
2605.45231,0.91552
2603.52378,0.91573
2601.59524,0.91595
2599.66670,0.91612
2597.73817,0.91620
2595.80963,0.91622
2593.88110,0.91622
2591.95256,0.91625
2590.02402,0.91628
2588.09549,0.91629
2586.16695,0.91626
2584.23842,0.91629
2582.30988,0.91643
2580.38134,0.91660
2578.45281,0.91671
2576.52427,0.91671
2574.59573,0.91666
2572.66720,0.91670
2570.73866,0.91690
2568.81013,0.91715
2566.88159,0.91737
2564.95305,0.91749
2563.02452,0.91745
2561.09598,0.91741
2559.16745,0.91744
2557.23891,0.91749
2555.31037,0.91759
2553.38184,0.91775
2551.45330,0.91780
2549.52476,0.91770
2547.59623,0.91763
2545.66769,0.91774
2543.73916,0.91791
2541.81062,0.91804
2539.88208,0.91819
2537.95355,0.91831
2536.02501,0.91828
2534.09648,0.91819
2532.16794,0.91821
2530.23940,0.91830
2528.31087,0.91840
2526.38233,0.91847
2524.45380,0.91854
2522.52526,0.91854
2520.59672,0.91845
2518.66819,0.91834
2516.73965,0.91829
2514.81111,0.91834
2512.88258,0.91848
2510.95404,0.91849
2509.02551,0.91838
2507.09697,0.91836
2505.16843,0.91848
2503.23990,0.91857
2501.31136,0.91855
2499.38283,0.91852
2497.45429,0.91857
2495.52575,0.91863
2493.59722,0.91865
2491.66868,0.91864
2489.74014,0.91872
2487.81161,0.91887
2485.88307,0.91898
2483.95454,0.91901
2482.02600,0.91900
2480.09746,0.91901
2478.16893,0.91904
2476.24039,0.91909
2474.31186,0.91916
2472.38332,0.91921
2470.45478,0.91922
2468.52625,0.91918
2466.59771,0.91901
2464.66918,0.91869
2462.74064,0.91840
2460.81210,0.91833
2458.88357,0.91845
2456.95503,0.91855
2455.02649,0.91849
2453.09796,0.91834
2451.16942,0.91827
2449.24089,0.91824
2447.31235,0.91824
2445.38381,0.91833
2443.45528,0.91854
2441.52674,0.91885
2439.59821,0.91909
2437.66967,0.91917
2435.74113,0.91923
2433.81260,0.91932
2431.88406,0.91944
2429.95552,0.91954
2428.02699,0.91958
2426.09845,0.91960
2424.16992,0.91963
2422.24138,0.91965
2420.31284,0.91965
2418.38431,0.91971
2416.45577,0.91982
2414.52724,0.91985
2412.59870,0.91981
2410.67016,0.91986
2408.74163,0.91998
2406.81309,0.92001
2404.88456,0.91990
2402.95602,0.91986
2401.02748,0.91997
2399.09895,0.92007
2397.17041,0.92010
2395.24187,0.92007
2393.31334,0.91996
2391.38480,0.91979
2389.45627,0.91958
2387.52773,0.91913
2385.59919,0.91804
2383.67066,0.91606
2381.74212,0.91328
2379.81359,0.90988
2377.88505,0.90584
2375.95651,0.90109
2374.02798,0.89575
2372.09944,0.88992
2370.17090,0.88374
2368.24237,0.87767
2366.31383,0.87227
2364.38530,0.86784
2362.45676,0.86477
2360.52822,0.86364
2358.59969,0.86489
2356.67115,0.86866
2354.74262,0.87443
2352.81408,0.88158
2350.88554,0.88821
2348.95701,0.89132
2347.02847,0.88968
2345.09994,0.88437
2343.17140,0.87947
2341.24286,0.87779
2339.31433,0.87817
2337.38579,0.87922
2335.45725,0.88054
2333.52872,0.88183
2331.60018,0.88278
2329.67165,0.88362
2327.74311,0.88462
2325.81457,0.88596
2323.88604,0.88785
2321.95750,0.89055
2320.02897,0.89399
2318.10043,0.89750
2316.17189,0.90041
2314.24336,0.90254
2312.31482,0.90411
2310.38628,0.90565
2308.45775,0.90745
2306.52921,0.90934
2304.60068,0.91103
2302.67214,0.91238
2300.74360,0.91344
2298.81507,0.91433
2296.88653,0.91509
2294.95800,0.91577
2293.02946,0.91647
2291.10092,0.91723
2289.17239,0.91799
2287.24385,0.91875
2285.31532,0.91949
2283.38678,0.92013
2281.45824,0.92055
2279.52971,0.92076
2277.60117,0.92083
2275.67263,0.92090
2273.74410,0.92109
2271.81556,0.92133
2269.88703,0.92144
2267.95849,0.92144
2266.02995,0.92155
2264.10142,0.92191
2262.17288,0.92230
2260.24435,0.92243
2258.31581,0.92253
2256.38727,0.92294
2254.45874,0.92336
2252.53020,0.92351
2250.60166,0.92369
2248.67313,0.92406
2246.74459,0.92421
2244.81606,0.92409
2242.88752,0.92417
2240.95898,0.92453
2239.03045,0.92480
2237.10191,0.92498
2235.17338,0.92523
2233.24484,0.92544
2231.31630,0.92554
2229.38777,0.92566
2227.45923,0.92582
2225.53070,0.92597
2223.60216,0.92621
2221.67362,0.92639
2219.74509,0.92624
2217.81655,0.92616
2215.88801,0.92647
2213.95948,0.92677
2212.03094,0.92692
2210.10241,0.92704
2208.17387,0.92704
2206.24533,0.92706
2204.31680,0.92726
2202.38826,0.92739
2200.45973,0.92739
2198.53119,0.92742
2196.60265,0.92746
2194.67412,0.92762
2192.74558,0.92792
2190.81704,0.92805
2188.88851,0.92806
2186.95997,0.92825
2185.03144,0.92847
2183.10290,0.92872
2181.17436,0.92904
2179.24583,0.92928
2177.31729,0.92955
2175.38876,0.92983
2173.46022,0.92978
2171.53168,0.92935
2169.60315,0.92896
2167.67461,0.92898
2165.74607,0.92929
2163.81754,0.92963
2161.88900,0.93060
2159.96047,0.93265
2158.03193,0.93426
2156.10339,0.93404
2154.17486,0.93289
2152.24632,0.93200
2150.31779,0.93162
2148.38925,0.93156
2146.46071,0.93138
2144.53218,0.93097
2142.60364,0.93080
2140.67511,0.93092
2138.74657,0.93094
2136.81803,0.93094
2134.88950,0.93104
2132.96096,0.93079
2131.03242,0.93012
2129.10389,0.92945
2127.17535,0.92885
2125.24682,0.92828
2123.31828,0.92783
2121.38974,0.92749
2119.46121,0.92713
2117.53267,0.92688
2115.60414,0.92688
2113.67560,0.92696
2111.74706,0.92702
2109.81853,0.92712
2107.88999,0.92728
2105.96145,0.92742
2104.03292,0.92745
2102.10438,0.92741
2100.17585,0.92754
2098.24731,0.92793
2096.31877,0.92833
2094.39024,0.92839
2092.46170,0.92812
2090.53317,0.92782
2088.60463,0.92770
2086.67609,0.92774
2084.74756,0.92775
2082.81902,0.92764
2080.89049,0.92754
2078.96195,0.92756
2077.03341,0.92764
2075.10488,0.92772
2073.17634,0.92795
2071.24780,0.92845
2069.31927,0.92900
2067.39073,0.92924
2065.46220,0.92914
2063.53366,0.92913
2061.60512,0.92938
2059.67659,0.92951
2057.74805,0.92954
2055.81952,0.92984
2053.89098,0.92991
2051.96244,0.92951
2050.03391,0.92971
2048.10537,0.93074
2046.17683,0.93148
2044.24830,0.93170
2042.31976,0.93190
2040.39123,0.93231
2038.46269,0.93289
2036.53415,0.93360
2034.60562,0.93437
2032.67708,0.93485
2030.74855,0.93497
2028.82001,0.93517
2026.89147,0.93551
2024.96294,0.93575
2023.03440,0.93584
2021.10587,0.93588
2019.17733,0.93595
2017.24879,0.93604
2015.32026,0.93611
2013.39172,0.93602
2011.46318,0.93575
2009.53465,0.93556
2007.60611,0.93559
2005.67758,0.93540
2003.74904,0.93481
2001.82050,0.93422
1999.89197,0.93374
1997.96343,0.93349
1996.03490,0.93342
1994.10636,0.93319
1992.17782,0.93290
1990.24929,0.93280
1988.32075,0.93275
1986.39221,0.93254
1984.46368,0.93216
1982.53514,0.93176
1980.60661,0.93191
1978.67807,0.93285
1976.74953,0.93355
1974.82100,0.93355
1972.89246,0.93359
1970.96393,0.93374
1969.03539,0.93354
1967.10685,0.93281
1965.17832,0.93189
1963.24978,0.93135
1961.32125,0.93131
1959.39271,0.93140
1957.46417,0.93119
1955.53564,0.93074
1953.60710,0.93038
1951.67856,0.93020
1949.75003,0.93024
1947.82149,0.93043
1945.89296,0.93034
1943.96442,0.92984
1942.03588,0.92955
1940.10735,0.92975
1938.17881,0.92998
1936.25028,0.92992
1934.32174,0.92980
1932.39320,0.92981
1930.46467,0.92975
1928.53613,0.92953
1926.60759,0.92925
1924.67906,0.92880
1922.75052,0.92810
1920.82199,0.92757
1918.89345,0.92740
1916.96491,0.92744
1915.03638,0.92756
1913.10784,0.92755
1911.17931,0.92745
1909.25077,0.92739
1907.32223,0.92740
1905.39370,0.92738
1903.46516,0.92734
1901.53663,0.92730
1899.60809,0.92716
1897.67955,0.92686
1895.75102,0.92657
1893.82248,0.92644
1891.89394,0.92641
1889.96541,0.92639
1888.03687,0.92649
1886.10834,0.92668
1884.17980,0.92690
1882.25126,0.92716
1880.32273,0.92737
1878.39419,0.92745
1876.46566,0.92746
1874.53712,0.92743
1872.60858,0.92742
1870.68005,0.92729
1868.75151,0.92700
1866.82297,0.92704
1864.89444,0.92748
1862.96590,0.92787
1861.03737,0.92800
1859.10883,0.92799
1857.18029,0.92807
1855.25176,0.92822
1853.32322,0.92826
1851.39469,0.92813
1849.46615,0.92785
1847.53761,0.92746
1845.60908,0.92698
1843.68054,0.92679
1841.75200,0.92716
1839.82347,0.92754
1837.89493,0.92760
1835.96640,0.92745
1834.03786,0.92716
1832.10932,0.92659
1830.18079,0.92577
1828.25225,0.92527
1826.32372,0.92527
1824.39518,0.92539
1822.46664,0.92555
1820.53811,0.92574
1818.60957,0.92592
1816.68104,0.92596
1814.75250,0.92577
1812.82396,0.92542
1810.89543,0.92513
1808.96689,0.92516
1807.03835,0.92546
1805.10982,0.92571
1803.18128,0.92570
1801.25275,0.92568
1799.32421,0.92596
1797.39567,0.92631
1795.46714,0.92638
1793.53860,0.92614
1791.61007,0.92617
1789.68153,0.92679
1787.75299,0.92733
1785.82446,0.92748
1783.89592,0.92736
1781.96738,0.92718
1780.03885,0.92706
1778.11031,0.92701
1776.18178,0.92681
1774.25324,0.92624
1772.32470,0.92564
1770.39617,0.92581
1768.46763,0.92638
1766.53910,0.92678
1764.61056,0.92684
1762.68202,0.92658
1760.75349,0.92632
1758.82495,0.92621
1756.89642,0.92615
1754.96788,0.92622
1753.03934,0.92609
1751.11081,0.92543
1749.18227,0.92481
1747.25373,0.92493
1745.32520,0.92521
1743.39666,0.92520
1741.46813,0.92499
1739.53959,0.92485
1737.61105,0.92478
1735.68252,0.92440
1733.75398,0.92391
1731.82545,0.92437
1729.89691,0.92514
1727.96837,0.92561
1726.03984,0.92581
1724.11130,0.92579
1722.18276,0.92556
1720.25423,0.92495
1718.32569,0.92359
1716.39716,0.92247
1714.46862,0.92309
1712.54008,0.92404
1710.61155,0.92456
1708.68301,0.92456
1706.75448,0.92413
1704.82594,0.92386
1702.89740,0.92402
1700.96887,0.92395
1699.04033,0.92349
1697.11180,0.92358
1695.18326,0.92450
1693.25472,0.92542
1691.32619,0.92576
1689.39765,0.92562
1687.46911,0.92524
1685.54058,0.92455
1683.61204,0.92381
1681.68351,0.92404
1679.75497,0.92448
1677.82643,0.92454
1675.89790,0.92415
1673.96936,0.92367
1672.04083,0.92320
1670.11229,0.92262
1668.18375,0.92261
1666.25522,0.92297
1664.32668,0.92291
1662.39814,0.92252
1660.46961,0.92239
1658.54107,0.92226
1656.61254,0.92166
1654.68400,0.92016
1652.75546,0.91789
1650.82693,0.91723
1648.89839,0.91667
1646.96986,0.91544
1645.04132,0.91525
1643.11278,0.91580
1641.18425,0.91595
1639.25571,0.91543
1637.32718,0.91387
1635.39864,0.91147
1633.47010,0.91032
1631.54157,0.90999
1629.61303,0.90973
1627.68449,0.90997
1625.75596,0.91085
1623.82742,0.91200
1621.89889,0.91310
1619.97035,0.91342
1618.04181,0.91261
1616.11328,0.91126
1614.18474,0.91094
1612.25621,0.91117
1610.32767,0.91146
1608.39913,0.91198
1606.47060,0.91268
1604.54206,0.91320
1602.61352,0.91321
1600.68499,0.91257
1598.75645,0.91135
1596.82792,0.90991
1594.89938,0.90867
1592.97084,0.90725
1591.04231,0.90444
1589.11377,0.89969
1587.18524,0.89407
1585.25670,0.88897
1583.32816,0.88526
1581.39963,0.88360
1579.47109,0.88391
1577.54256,0.88620
1575.61402,0.89121
1573.68548,0.89604
1571.75695,0.89941
1569.82841,0.90310
1567.89987,0.90616
1565.97134,0.90602
1564.04280,0.90300
1562.11427,0.89885
1560.18573,0.89294
1558.25719,0.88446
1556.32866,0.88513
1554.40012,0.89157
1552.47159,0.89881
1550.54305,0.90507
1548.61451,0.90967
1546.68598,0.91203
1544.75744,0.91270
1542.82890,0.91263
1540.90037,0.91315
1538.97183,0.91558
1537.04330,0.91722
1535.11476,0.91739
1533.18622,0.91672
1531.25769,0.91608
1529.32915,0.91538
1527.40062,0.91442
1525.47208,0.91375
1523.54354,0.91351
1521.61501,0.91348
1519.68647,0.91412
1517.75793,0.91438
1515.82940,0.91339
1513.90086,0.91083
1511.97233,0.90592
1510.04379,0.89820
1508.11525,0.88041
1506.18672,0.84301
1504.25818,0.81937
1502.32965,0.80541
1500.40111,0.79105
1498.47257,0.77866
1496.54404,0.77587
1494.61550,0.78244
1492.68697,0.78986
1490.75843,0.79337
1488.82989,0.78750
1486.90136,0.77555
1484.97282,0.76658
1483.04428,0.76330
1481.11575,0.76658
1479.18721,0.77517
1477.25868,0.78700
1475.33014,0.80120
1473.40160,0.81846
1471.47307,0.83536
1469.54453,0.84459
1467.61600,0.84906
1465.68746,0.85262
1463.75892,0.85633
1461.83039,0.85879
1459.90185,0.85845
1457.97331,0.84988
1456.04478,0.83050
1454.11624,0.81563
1452.18771,0.80448
1450.25917,0.79570
1448.33063,0.79286
1446.40210,0.79792
1444.47356,0.80612
1442.54503,0.80987
1440.61649,0.80430
1438.68795,0.78879
1436.75942,0.76414
1434.83088,0.74579
1432.90235,0.74574
1430.97381,0.76001
1429.04527,0.78262
1427.11674,0.80217
1425.18820,0.81561
1423.25966,0.82442
1421.33113,0.82837
1419.40259,0.82881
1417.47406,0.82835
1415.54552,0.82873
1413.61698,0.82946
1411.68845,0.83003
1409.75991,0.83052
1407.83138,0.83115
1405.90284,0.83253
1403.97430,0.83545
1402.04577,0.83947
1400.11723,0.84414
1398.18869,0.84913
1396.26016,0.85334
1394.33162,0.85660
1392.40309,0.85888
1390.47455,0.86003
1388.54601,0.86075
1386.61748,0.86223
1384.68894,0.86462
1382.76041,0.86711
1380.83187,0.86928
1378.90333,0.87093
1376.97480,0.87191
1375.04626,0.87257
1373.11773,0.87387
1371.18919,0.87614
1369.26065,0.87935
1367.33212,0.88329
1365.40358,0.88725
1363.47504,0.89135
1361.54651,0.89577
1359.61797,0.89954
1357.68944,0.90240
1355.76090,0.90476
1353.83236,0.90676
1351.90383,0.90842
1349.97529,0.90982
1348.04676,0.91101
1346.11822,0.91195
1344.18968,0.91247
1342.26115,0.91233
1340.33261,0.91117
1338.40407,0.90885
1336.47554,0.90525
1334.54700,0.89982
1332.61847,0.89190
1330.68993,0.88119
1328.76139,0.86793
1326.83286,0.85268
1324.90432,0.83646
1322.97579,0.82088
1321.04725,0.80732
1319.11871,0.79649
1317.19018,0.78932
1315.26164,0.78616
1313.33311,0.78642
1311.40457,0.78946
1309.47603,0.79459
1307.54750,0.80109
1305.61896,0.80811
1303.69042,0.81494
1301.76189,0.82144
1299.83335,0.82756
1297.90482,0.83322
1295.97628,0.83839
1294.04774,0.84288
1292.11921,0.84607
1290.19067,0.84706
1288.26214,0.84495
1286.33360,0.83951
1284.40506,0.83179
1282.47653,0.82362
1280.54799,0.81683
1278.61945,0.81239
1276.69092,0.81009
1274.76238,0.80965
1272.83385,0.81171
1270.90531,0.81698
1268.97677,0.82460
1267.04824,0.83285
1265.11970,0.84071
1263.19117,0.84799
1261.26263,0.85461
1259.33409,0.86014
1257.40556,0.86371
1255.47702,0.86469
1253.54849,0.86305
1251.61995,0.85957
1249.69141,0.85564
1247.76288,0.85276
1245.83434,0.85187
1243.90580,0.85294
1241.97727,0.85480
1240.04873,0.85568
1238.12020,0.85361
1236.19166,0.84683
1234.26312,0.83428
1232.33459,0.81657
1230.40605,0.79654
1228.47752,0.77919
1226.54898,0.77046
1224.62044,0.77411
1222.69191,0.78880
1220.76337,0.80900
1218.83483,0.82891
1216.90630,0.84521
1214.97776,0.85739
1213.04923,0.86622
1211.12069,0.87253
1209.19215,0.87695
1207.26362,0.88012
1205.33508,0.88251
1203.40655,0.88446
1201.47801,0.88613
1199.54947,0.88736
1197.62094,0.88779
1195.69240,0.88722
1193.76387,0.88575
1191.83533,0.88379
1189.90679,0.88184
1187.97826,0.88036
1186.04972,0.87959
1184.12118,0.87949
1182.19265,0.87967
1180.26411,0.87935
1178.33558,0.87751
1176.40704,0.87343
1174.47850,0.86701
1172.54997,0.85891
1170.62143,0.85017
1168.69290,0.84188
1166.76436,0.83500
1164.83582,0.82999
1162.90729,0.82660
1160.97875,0.82444
1159.05021,0.82327
1157.12168,0.82251
1155.19314,0.82061
1153.26461,0.81560
1151.33607,0.80615
1149.40753,0.79230
1147.47900,0.77535
1145.55046,0.75753
1143.62193,0.74163
1141.69339,0.73077
1139.76485,0.72730
1137.83632,0.73126
1135.90778,0.74029
1133.97924,0.75141
1132.05071,0.76276
1130.12217,0.77361
1128.19364,0.78343
1126.26510,0.79145
1124.33656,0.79662
1122.40803,0.79812
1120.47949,0.79599
1118.55096,0.79162
1116.62242,0.78739
1114.69388,0.78523
1112.76535,0.78563
1110.83681,0.78782
1108.90828,0.79049
1106.97974,0.79201
1105.05120,0.79112
1103.12267,0.78763
1101.19413,0.78282
1099.26559,0.77892
1097.33706,0.77803
1095.40852,0.78096
1093.47999,0.78709
1091.55145,0.79540
1089.62291,0.80510
1087.69438,0.81487
1085.76584,0.82223
1083.83731,0.82408
1081.90877,0.81852
1079.98023,0.80637
1078.05170,0.79103
1076.12316,0.77661
1074.19462,0.76685
1072.26609,0.76528
1070.33755,0.77375
1068.40902,0.79010
1066.48048,0.80919
1064.55194,0.82626
1062.62341,0.83892
1060.69487,0.84681
1058.76634,0.85066
1056.83780,0.85150
1054.90926,0.85024
1052.98073,0.84738
1051.05219,0.84293
1049.12366,0.83693
1047.19512,0.83011
1045.26658,0.82408
1043.33805,0.82066
1041.40951,0.82086
1039.48097,0.82437
1037.55244,0.82992
1035.62390,0.83565
1033.69537,0.83934
1031.76683,0.83906
1029.83829,0.83451
1027.90976,0.82761
1025.98122,0.82051
1024.05269,0.81307
1022.12415,0.80413
1020.19561,0.79455
1018.26708,0.78589
1016.33854,0.77715
1014.41000,0.76538
1012.48147,0.74951
1010.55293,0.73165
1008.62440,0.71588
1006.69586,0.70670
1004.76732,0.70584
1002.83879,0.71087
1000.91025,0.71967
998.98172,0.73337
997.05318,0.75267
995.12464,0.77461
993.19611,0.79481
991.26757,0.81088
989.33904,0.82284
987.41050,0.83174
985.48196,0.83863
983.55343,0.84428
981.62489,0.84903
979.69635,0.85298
977.76782,0.85629
975.83928,0.85920
973.91075,0.86190
971.98221,0.86453
970.05367,0.86716
968.12514,0.86969
966.19660,0.87206
964.26807,0.87418
962.33953,0.87584
960.41099,0.87671
958.48246,0.87651
956.55392,0.87522
954.62538,0.87322
952.69685,0.87111
950.76831,0.86951
948.83978,0.86879
946.91124,0.86910
944.98270,0.87006
943.05417,0.87075
941.12563,0.87033
939.19710,0.86877
937.26856,0.86693
935.34002,0.86573
933.41149,0.86505
931.48295,0.86344
929.55442,0.85897
927.62588,0.85064
925.69734,0.83991
923.76881,0.83047
921.84027,0.82565
919.91173,0.82561
917.98320,0.82767
916.05466,0.82896
914.12613,0.82822
912.19759,0.82534
910.26905,0.82060
908.34052,0.81458
906.41198,0.80812
904.48345,0.80214
902.55491,0.79739
900.62637,0.79437
898.69784,0.79333
896.76930,0.79428
894.84076,0.79701
892.91223,0.80110
890.98369,0.80609
889.05516,0.81144
887.12662,0.81633
885.19808,0.82017
883.26955,0.82283
881.34101,0.82440
879.41248,0.82538
877.48394,0.82661
875.55540,0.82873
873.62687,0.83203
871.69833,0.83654
869.76980,0.84172
867.84126,0.84644
865.91272,0.84963
863.98419,0.85081
862.05565,0.85022
860.12711,0.84858
858.19858,0.84636
856.27004,0.84375
854.34151,0.84114
852.41297,0.83907
850.48443,0.83781
848.55590,0.83748
846.62736,0.83829
844.69883,0.84043
842.77029,0.84357
840.84175,0.84688
838.91322,0.84919
836.98468,0.84946
835.05614,0.84752
833.12761,0.84405
831.19907,0.83992
829.27054,0.83566
827.34200,0.83141
825.41346,0.82717
823.48493,0.82308
821.55639,0.81917
819.62786,0.81501
817.69932,0.81079
815.77078,0.80837
813.84225,0.80956
811.91371,0.81408
809.98517,0.82023
808.05664,0.82680
806.12810,0.83344
804.19957,0.84004
802.27103,0.84639
800.34249,0.85222
798.41396,0.85745
796.48542,0.86228
794.55689,0.86683
792.62835,0.87089
790.69981,0.87385
788.77128,0.87427
786.84274,0.87003
784.91421,0.86013
782.98567,0.84563
781.05713,0.82867
779.12860,0.81207
777.20006,0.79865
775.27152,0.78913
773.34299,0.78251
771.41445,0.77884
769.48592,0.77956
767.55738,0.78497
765.62884,0.79267
763.70031,0.79860
761.77177,0.79930
759.84324,0.79384
757.91470,0.78508
755.98616,0.77728
754.05763,0.77149
752.12909,0.76554
750.20055,0.75775
748.27202,0.74813
746.34348,0.73716
744.41495,0.72522
742.48641,0.71331
740.55787,0.70412
738.62934,0.70245
736.70080,0.71325
734.77227,0.73671
732.84373,0.76572
730.91519,0.79100
728.98666,0.80783
727.05812,0.81661
725.12959,0.81933
723.20105,0.81781
721.27251,0.81395
719.34398,0.81009
717.41544,0.80775
715.48690,0.80644
713.55837,0.80453
711.62983,0.80033
709.70130,0.79360
707.77276,0.78604
705.84422,0.77910
703.91569,0.77205
701.98715,0.76271
700.05862,0.74926
698.13008,0.73138
696.20154,0.71068
694.27301,0.69063
692.34447,0.67621
690.41593,0.67330
688.48740,0.68520
686.55886,0.70832
684.63033,0.73413
682.70179,0.75634
680.77325,0.77350
678.84472,0.78671
676.91618,0.79729
674.98765,0.80620
673.05911,0.81309
671.13057,0.81671
669.20204,0.81935
667.27350,0.82631
665.34497,0.83236
663.41643,0.83486
661.48789,0.83616
659.55936,0.83793
657.63082,0.83997
655.70228,0.83894
653.77375,0.83106
651.84521,0.81892
649.91668,0.81251
647.98814,0.81823
646.05960,0.83076
644.13107,0.84124
642.20253,0.84642
640.27400,0.84724
638.34546,0.84471
636.41692,0.84023
634.48839,0.83695
632.55985,0.83755
630.63131,0.84120
628.70278,0.84450
626.77424,0.84486
624.84571,0.84263
622.91717,0.84098
620.98863,0.84268
619.06010,0.84722
617.13156,0.85301
615.20303,0.85925
613.27449,0.86445
611.34595,0.86757
609.41742,0.86907
607.48888,0.86919
605.56035,0.86788
603.63181,0.86511
601.70327,0.86054
599.77474,0.85400
597.84620,0.84580
595.91766,0.83653
593.98913,0.82697
592.06059,0.81787
590.13206,0.80876
588.20352,0.79622
586.27498,0.77498
584.34645,0.74588
582.41791,0.72048
580.48938,0.71057
578.56084,0.71726
576.63230,0.73488
574.70377,0.75759
572.77523,0.77994
570.84669,0.79923
568.91816,0.81440
566.98962,0.82451
565.06109,0.82971
563.13255,0.83128
561.20401,0.83107
559.27548,0.83091
557.34694,0.83210
555.41841,0.83446
553.48987,0.83676
551.56133,0.83808
549.63280,0.83809
547.70426,0.83671
545.77573,0.83376
543.84719,0.82879
541.91865,0.82140
539.99012,0.81277
538.06158,0.80614
536.13304,0.80447
534.20451,0.80842
532.27597,0.81640
530.34744,0.82509
528.41890,0.83099
526.49036,0.83226
524.56183,0.82881
522.63329,0.82250
520.70476,0.81551
518.77622,0.80969
516.84768,0.80572
514.91915,0.80117
512.99061,0.79260
511.06207,0.77919
509.13354,0.76293
507.20500,0.74538
505.27647,0.72809
503.34793,0.71194
501.41939,0.69642
499.49086,0.68356
497.56232,0.67635
495.63379,0.67600
493.70525,0.67965
491.77671,0.68151
489.84818,0.68038
487.91964,0.68124
485.99110,0.68979
484.06257,0.70758
482.13403,0.72848
480.20550,0.74573
478.27696,0.75831
476.34842,0.76677
474.41989,0.77269
472.49135,0.77811
470.56282,0.78176
468.63428,0.78225
466.70574,0.78032
464.77721,0.77600
462.84867,0.76971
460.92014,0.76367
458.99160,0.75900
457.06306,0.75610
455.13453,0.75590
453.20599,0.75750
451.27745,0.76030
449.34892,0.76365
447.42038,0.76731
445.49185,0.77187
443.56331,0.77688
441.63477,0.78115
439.70624,0.78433
437.77770,0.78678
435.84917,0.78886
433.92063,0.79095
431.99209,0.79308
430.06356,0.79439
428.13502,0.79456
426.20648,0.79450
424.27795,0.79466
422.34941,0.79495
420.42088,0.79639
418.49234,0.80119
416.56380,0.80659
414.63527,0.80953
412.70673,0.81143
410.77820,0.81292
408.84966,0.81503
406.92112,0.81848
404.99259,0.82067
403.06405,0.81968
401.13552,0.81754
399.20698,0.81680
