3997.85540,0.96002
3995.92686,0.96017
3993.99833,0.96018
3992.06979,0.96008
3990.14125,0.95996
3988.21272,0.95986
3986.28418,0.95978
3984.35565,0.95972
3982.42711,0.95968
3980.49857,0.95962
3978.57004,0.95957
3976.64150,0.95960
3974.71297,0.95972
3972.78443,0.95982
3970.85589,0.95983
3968.92736,0.95985
3966.99882,0.95994
3965.07029,0.96003
3963.14175,0.96010
3961.21321,0.96012
3959.28468,0.96012
3957.35614,0.96019
3955.42760,0.96028
3953.49907,0.96027
3951.57053,0.96012
3949.64200,0.95992
3947.71346,0.95990
3945.78492,0.96005
3943.85639,0.96018
3941.92785,0.96026
3939.99932,0.96029
3938.07078,0.96025
3936.14224,0.96016
3934.21371,0.96013
3932.28517,0.96030
3930.35663,0.96048
3928.42810,0.96047
3926.49956,0.96045
3924.57103,0.96053
3922.64249,0.96063
3920.71395,0.96063
3918.78542,0.96060
3916.85688,0.96067
3914.92835,0.96075
3912.99981,0.96072
3911.07127,0.96066
3909.14274,0.96061
3907.21420,0.96057
3905.28566,0.96058
3903.35713,0.96074
3901.42859,0.96074
3899.50006,0.96056
3897.57152,0.96042
3895.64298,0.96033
3893.71445,0.96035
3891.78591,0.96036
3889.85738,0.95998
3887.92884,0.95950
3886.00030,0.95908
3884.07177,0.95874
3882.14323,0.95868
3880.21470,0.95895
3878.28616,0.95926
3876.35762,0.95949
3874.42909,0.95975
3872.50055,0.95990
3870.57201,0.95983
3868.64348,0.95987
3866.71494,0.95997
3864.78641,0.96009
3862.85787,0.96040
3860.92933,0.96064
3859.00080,0.96072
3857.07226,0.96082
3855.14373,0.96113
3853.21519,0.96143
3851.28665,0.96117
3849.35812,0.96106
3847.42958,0.96115
3845.50104,0.96133
3843.57251,0.96145
3841.64397,0.96125
3839.71544,0.96080
3837.78690,0.96068
3835.85836,0.96087
3833.92983,0.96088
3832.00129,0.96078
3830.07276,0.96065
3828.14422,0.96055
3826.21568,0.96049
3824.28715,0.96044
3822.35861,0.96037
3820.43008,0.96015
3818.50154,0.95989
3816.57300,0.96000
3814.64447,0.96046
3812.71593,0.96080
3810.78739,0.96097
3808.85886,0.96114
3806.93032,0.96143
3805.00179,0.96168
3803.07325,0.96183
3801.14471,0.96214
3799.21618,0.96237
3797.28764,0.96226
3795.35911,0.96205
3793.43057,0.96199
3791.50203,0.96207
3789.57350,0.96220
3787.64496,0.96224
3785.71642,0.96223
3783.78789,0.96224
3781.85935,0.96225
3779.93082,0.96225
3778.00228,0.96231
3776.07374,0.96238
3774.14521,0.96237
3772.21667,0.96228
3770.28814,0.96209
3768.35960,0.96190
3766.43106,0.96193
3764.50253,0.96209
3762.57399,0.96217
3760.64546,0.96219
3758.71692,0.96229
3756.78838,0.96249
3754.85985,0.96256
3752.93131,0.96235
3751.00277,0.96197
3749.07424,0.96215
3747.14570,0.96252
3745.21717,0.96284
3743.28863,0.96300
3741.36009,0.96298
3739.43156,0.96298
3737.50302,0.96304
3735.57449,0.96300
3733.64595,0.96270
3731.71741,0.96253
3729.78888,0.96257
3727.86034,0.96271
3725.93180,0.96290
3724.00327,0.96300
3722.07473,0.96300
3720.14620,0.96306
3718.21766,0.96320
3716.28912,0.96334
3714.36059,0.96359
3712.43205,0.96400
3710.50352,0.96390
3708.57498,0.96335
3706.64644,0.96318
3704.71791,0.96325
3702.78937,0.96338
3700.86084,0.96344
3698.93230,0.96334
3697.00376,0.96320
3695.07523,0.96316
3693.14669,0.96332
3691.21815,0.96371
3689.28962,0.96387
3687.36108,0.96364
3685.43255,0.96363
3683.50401,0.96372
3681.57547,0.96379
3679.64694,0.96392
3677.71840,0.96410
3675.78987,0.96394
3673.86133,0.96339
3671.93279,0.96313
3670.00426,0.96307
3668.07572,0.96315
3666.14718,0.96324
3664.21865,0.96327
3662.29011,0.96329
3660.36158,0.96342
3658.43304,0.96356
3656.50450,0.96356
3654.57597,0.96347
3652.64743,0.96336
3650.71890,0.96316
3648.79036,0.96297
3646.86182,0.96298
3644.93329,0.96294
3643.00475,0.96286
3641.07622,0.96286
3639.14768,0.96303
3637.21914,0.96323
3635.29061,0.96324
3633.36207,0.96314
3631.43353,0.96317
3629.50500,0.96314
3627.57646,0.96270
3625.64793,0.96243
3623.71939,0.96239
3621.79085,0.96243
3619.86232,0.96258
3617.93378,0.96274
3616.00525,0.96276
3614.07671,0.96269
3612.14817,0.96255
3610.21964,0.96251
3608.29110,0.96258
3606.36256,0.96250
3604.43403,0.96230
3602.50549,0.96219
3600.57696,0.96224
3598.64842,0.96234
3596.71988,0.96243
3594.79135,0.96249
3592.86281,0.96247
3590.93428,0.96244
3589.00574,0.96238
3587.07720,0.96214
3585.14867,0.96206
3583.22013,0.96216
3581.29160,0.96222
3579.36306,0.96228
3577.43452,0.96231
3575.50599,0.96224
3573.57745,0.96221
3571.64891,0.96230
3569.72038,0.96240
3567.79184,0.96251
3565.86331,0.96248
3563.93477,0.96228
3562.00623,0.96221
3560.07770,0.96226
3558.14916,0.96225
3556.22063,0.96216
3554.29209,0.96210
3552.36355,0.96217
3550.43502,0.96237
3548.50648,0.96255
3546.57794,0.96254
3544.64941,0.96241
3542.72087,0.96240
3540.79234,0.96248
3538.86380,0.96250
3536.93526,0.96246
3535.00673,0.96243
3533.07819,0.96249
3531.14966,0.96265
3529.22112,0.96276
3527.29258,0.96273
3525.36405,0.96269
3523.43551,0.96264
3521.50697,0.96258
3519.57844,0.96262
3517.64990,0.96269
3515.72137,0.96264
3513.79283,0.96257
3511.86429,0.96257
3509.93576,0.96266
3508.00722,0.96275
3506.07869,0.96275
3504.15015,0.96275
3502.22161,0.96279
3500.29308,0.96272
3498.36454,0.96258
3496.43601,0.96251
3494.50747,0.96247
3492.57893,0.96245
3490.65040,0.96251
3488.72186,0.96268
3486.79332,0.96286
3484.86479,0.96294
3482.93625,0.96297
3481.00772,0.96302
3479.07918,0.96302
3477.15064,0.96296
3475.22211,0.96296
3473.29357,0.96302
3471.36504,0.96315
3469.43650,0.96328
3467.50796,0.96330
3465.57943,0.96325
3463.65089,0.96322
3461.72235,0.96324
3459.79382,0.96325
3457.86528,0.96324
3455.93675,0.96328
3454.00821,0.96335
3452.07967,0.96340
3450.15114,0.96343
3448.22260,0.96349
3446.29407,0.96358
3444.36553,0.96366
3442.43699,0.96361
3440.50846,0.96346
3438.57992,0.96336
3436.65139,0.96335
3434.72285,0.96338
3432.79431,0.96343
3430.86578,0.96343
3428.93724,0.96336
3427.00870,0.96322
3425.08017,0.96306
3423.15163,0.96293
3421.22310,0.96286
3419.29456,0.96282
3417.36602,0.96276
3415.43749,0.96272
3413.50895,0.96276
3411.58042,0.96284
3409.65188,0.96283
3407.72334,0.96265
3405.79481,0.96245
3403.86627,0.96235
3401.93773,0.96232
3400.00920,0.96234
3398.08066,0.96234
3396.15213,0.96226
3394.22359,0.96214
3392.29505,0.96202
3390.36652,0.96190
3388.43798,0.96176
3386.50945,0.96164
3384.58091,0.96156
3382.65237,0.96146
3380.72384,0.96141
3378.79530,0.96143
3376.86677,0.96142
3374.93823,0.96132
3373.00969,0.96118
3371.08116,0.96103
3369.15262,0.96089
3367.22408,0.96070
3365.29555,0.96045
3363.36701,0.96024
3361.43848,0.96004
3359.50994,0.95976
3357.58140,0.95940
3355.65287,0.95906
3353.72433,0.95872
3351.79580,0.95835
3349.86726,0.95801
3347.93872,0.95772
3346.01019,0.95744
3344.08165,0.95711
3342.15311,0.95667
3340.22458,0.95610
3338.29604,0.95547
3336.36751,0.95484
3334.43897,0.95416
3332.51043,0.95333
3330.58190,0.95229
3328.65336,0.95121
3326.72483,0.95021
3324.79629,0.94922
3322.86775,0.94812
3320.93922,0.94678
3319.01068,0.94534
3317.08215,0.94401
3315.15361,0.94281
3313.22507,0.94164
3311.29654,0.94040
3309.36800,0.93914
3307.43946,0.93785
3305.51093,0.93641
3303.58239,0.93470
3301.65386,0.93281
3299.72532,0.93101
3297.79678,0.92931
3295.86825,0.92759
3293.93971,0.92566
3292.01118,0.92334
3290.08264,0.92062
3288.15410,0.91779
3286.22557,0.91494
3284.29703,0.91177
3282.36849,0.90808
3280.43996,0.90384
3278.51142,0.89904
3276.58289,0.89352
3274.65435,0.88709
3272.72581,0.87969
3270.79728,0.87145
3268.86874,0.86222
3266.94021,0.85161
3265.01167,0.83956
3263.08313,0.82622
3261.15460,0.81160
3259.22606,0.79549
3257.29753,0.77784
3255.36899,0.75855
3253.44045,0.73782
3251.51192,0.71654
3249.58338,0.69545
3247.65484,0.67532
3245.72631,0.65678
3243.79777,0.64007
3241.86924,0.62463
3239.94070,0.60904
3238.01216,0.59277
3236.08363,0.57748
3234.15509,0.56655
3232.22656,0.56330
3230.29802,0.56875
3228.36948,0.58124
3226.44095,0.59794
3224.51241,0.61644
3222.58387,0.63548
3220.65534,0.65469
3218.72680,0.67377
3216.79827,0.69205
3214.86973,0.70939
3212.94119,0.72555
3211.01266,0.74011
3209.08412,0.75324
3207.15559,0.76486
3205.22705,0.77488
3203.29851,0.78378
3201.36998,0.79182
3199.44144,0.79920
3197.51290,0.80619
3195.58437,0.81274
3193.65583,0.81870
3191.72730,0.82423
3189.79876,0.82942
3187.87022,0.83414
3185.94169,0.83848
3184.01315,0.84261
3182.08462,0.84655
3180.15608,0.85023
3178.22754,0.85371
3176.29901,0.85705
3174.37047,0.86044
3172.44194,0.86397
3170.51340,0.86753
3168.58486,0.87101
3166.65633,0.87448
3164.72779,0.87803
3162.79925,0.88169
3160.87072,0.88552
3158.94218,0.88934
3157.01365,0.89297
3155.08511,0.89634
3153.15657,0.89942
3151.22804,0.90212
3149.29950,0.90439
3147.37097,0.90643
3145.44243,0.90848
3143.51389,0.91047
3141.58536,0.91228
3139.65682,0.91393
3137.72828,0.91545
3135.79975,0.91679
3133.87121,0.91797
3131.94268,0.91900
3130.01414,0.91984
3128.08560,0.92066
3126.15707,0.92159
3124.22853,0.92269
3122.30000,0.92394
3120.37146,0.92514
3118.44292,0.92612
3116.51439,0.92687
3114.58585,0.92750
3112.65732,0.92810
3110.72878,0.92871
3108.80024,0.92925
3106.87171,0.92976
3104.94317,0.93034
3103.01463,0.93101
3101.08610,0.93163
3099.15756,0.93193
3097.22903,0.93195
3095.30049,0.93188
3093.37195,0.93174
3091.44342,0.93147
3089.51488,0.93101
3087.58635,0.93025
3085.65781,0.92905
3083.72927,0.92713
3081.80074,0.92397
3079.87220,0.91910
3077.94366,0.91346
3076.01513,0.90998
3074.08659,0.91083
3072.15806,0.91478
3070.22952,0.91896
3068.30098,0.92195
3066.37245,0.92388
3064.44391,0.92515
3062.51538,0.92590
3060.58684,0.92645
3058.65830,0.92713
3056.72977,0.92779
3054.80123,0.92814
3052.87270,0.92838
3050.94416,0.92864
3049.01562,0.92887
3047.08709,0.92944
3045.15855,0.93043
3043.23001,0.93127
3041.30148,0.93157
3039.37294,0.93129
3037.44441,0.93071
3035.51587,0.92977
3033.58733,0.92728
3031.65880,0.92087
3029.73026,0.90683
3027.80173,0.88279
3025.87319,0.85711
3023.94465,0.84949
3022.01612,0.86637
3020.08758,0.89070
3018.15904,0.90692
3016.23051,0.91395
3014.30197,0.91556
3012.37344,0.91265
3010.44490,0.90208
3008.51636,0.88251
3006.58783,0.86426
3004.65929,0.86311
3002.73076,0.87947
3000.80222,0.89868
2998.87368,0.91149
2996.94515,0.91822
2995.01661,0.92165
2993.08808,0.92347
2991.15954,0.92376
2989.23100,0.92265
2987.30247,0.92087
2985.37393,0.91894
2983.44539,0.91671
2981.51686,0.91340
2979.58832,0.90855
2977.65979,0.90311
2975.73125,0.89895
2973.80271,0.89695
2971.87418,0.89646
2969.94564,0.89598
2968.01711,0.89268
2966.08857,0.88110
2964.16003,0.85733
2962.23150,0.83144
2960.30296,0.82411
2958.37442,0.83934
2956.44589,0.86020
2954.51735,0.87395
2952.58882,0.88012
2950.66028,0.88205
2948.73174,0.88273
2946.80321,0.88338
2944.87467,0.88399
2942.94614,0.88514
2941.01760,0.88775
2939.08906,0.89186
2937.16053,0.89635
2935.23199,0.90010
2933.30346,0.90294
2931.37492,0.90504
2929.44638,0.90586
2927.51785,0.90498
2925.58931,0.90318
2923.66077,0.90165
2921.73224,0.90126
2919.80370,0.90222
2917.87517,0.90367
2915.94663,0.90460
2914.01809,0.90499
2912.08956,0.90534
2910.16102,0.90599
2908.23249,0.90721
2906.30395,0.90917
2904.37541,0.91158
2902.44688,0.91393
2900.51834,0.91611
2898.58980,0.91828
2896.66127,0.92016
2894.73273,0.92113
2892.80420,0.92118
2890.87566,0.92097
2888.94712,0.92104
2887.01859,0.92167
2885.09005,0.92274
2883.16152,0.92381
2881.23298,0.92455
2879.30444,0.92494
2877.37591,0.92512
2875.44737,0.92518
2873.51883,0.92498
2871.59030,0.92424
2869.66176,0.92299
2867.73323,0.92162
2865.80469,0.92026
2863.87615,0.91884
2861.94762,0.91748
2860.01908,0.91596
2858.09055,0.91390
2856.16201,0.91148
2854.23347,0.90915
2852.30494,0.90709
2850.37640,0.90522
2848.44787,0.90293
2846.51933,0.89928
2844.59079,0.89410
2842.66226,0.88822
2840.73372,0.88345
2838.80518,0.88226
2836.87665,0.88599
2834.94811,0.89328
2833.01958,0.90123
2831.09104,0.90781
2829.16250,0.91283
2827.23397,0.91688
2825.30543,0.92035
2823.37690,0.92325
2821.44836,0.92563
2819.51982,0.92770
2817.59129,0.92963
2815.66275,0.93142
2813.73421,0.93318
2811.80568,0.93496
2809.87714,0.93658
2807.94861,0.93787
2806.02007,0.93894
2804.09153,0.93995
2802.16300,0.94095
2800.23446,0.94192
2798.30593,0.94272
2796.37739,0.94313
2794.44885,0.94328
2792.52032,0.94353
2790.59178,0.94389
2788.66325,0.94407
2786.73471,0.94393
2784.80617,0.94355
2782.87764,0.94294
2780.94910,0.94206
2779.02056,0.94098
2777.09203,0.93984
2775.16349,0.93856
2773.23496,0.93682
2771.30642,0.93471
2769.37788,0.93272
2767.44935,0.93113
2765.52081,0.92995
2763.59228,0.92944
2761.66374,0.92984
2759.73520,0.93105
2757.80667,0.93275
2755.87813,0.93464
2753.94959,0.93651
2752.02106,0.93827
2750.09252,0.93986
2748.16399,0.94117
2746.23545,0.94222
2744.30691,0.94310
2742.37838,0.94394
2740.44984,0.94472
2738.52131,0.94535
2736.59277,0.94584
2734.66423,0.94631
2732.73570,0.94684
2730.80716,0.94740
2728.87863,0.94799
2726.95009,0.94857
2725.02155,0.94897
2723.09302,0.94909
2721.16448,0.94900
2719.23594,0.94884
2717.30741,0.94869
2715.37887,0.94855
2713.45034,0.94841
2711.52180,0.94830
2709.59326,0.94823
2707.66473,0.94816
2705.73619,0.94809
2703.80766,0.94804
2701.87912,0.94804
2699.95058,0.94804
2698.02205,0.94787
2696.09351,0.94748
2694.16497,0.94702
2692.23644,0.94664
2690.30790,0.94632
2688.37937,0.94606
2686.45083,0.94586
2684.52229,0.94594
2682.59376,0.94644
2680.66522,0.94713
2678.73669,0.94760
2676.80815,0.94775
2674.87961,0.94784
2672.95108,0.94799
2671.02254,0.94819
2669.09401,0.94856
2667.16547,0.94915
2665.23693,0.94972
2663.30840,0.95017
2661.37986,0.95050
2659.45132,0.95068
2657.52279,0.95069
2655.59425,0.95056
2653.66572,0.95038
2651.73718,0.95031
2649.80864,0.95043
2647.88011,0.95073
2645.95157,0.95116
2644.02304,0.95172
2642.09450,0.95241
2640.16596,0.95308
2638.23743,0.95359
2636.30889,0.95399
2634.38035,0.95431
2632.45182,0.95441
2630.52328,0.95435
2628.59475,0.95436
2626.66621,0.95452
2624.73767,0.95472
2622.80914,0.95499
2620.88060,0.95534
2618.95207,0.95560
2617.02353,0.95569
2615.09499,0.95569
2613.16646,0.95565
2611.23792,0.95555
2609.30939,0.95546
2607.38085,0.95544
2605.45231,0.95546
2603.52378,0.95547
2601.59524,0.95549
2599.66670,0.95554
2597.73817,0.95554
2595.80963,0.95537
2593.88110,0.95505
2591.95256,0.95467
2590.02402,0.95422
2588.09549,0.95376
2586.16695,0.95354
2584.23842,0.95361
2582.30988,0.95372
2580.38134,0.95378
2578.45281,0.95390
2576.52427,0.95410
2574.59573,0.95421
2572.66720,0.95422
2570.73866,0.95419
2568.81013,0.95412
2566.88159,0.95398
2564.95305,0.95375
2563.02452,0.95349
2561.09598,0.95326
2559.16745,0.95310
2557.23891,0.95320
2555.31037,0.95368
2553.38184,0.95435
2551.45330,0.95501
2549.52476,0.95570
2547.59623,0.95642
2545.66769,0.95699
2543.73916,0.95740
2541.81062,0.95775
2539.88208,0.95790
2537.95355,0.95776
2536.02501,0.95732
2534.09648,0.95668
2532.16794,0.95607
2530.23940,0.95563
2528.31087,0.95526
2526.38233,0.95485
2524.45380,0.95462
2522.52526,0.95472
2520.59672,0.95501
2518.66819,0.95523
2516.73965,0.95537
2514.81111,0.95551
2512.88258,0.95554
2510.95404,0.95525
2509.02551,0.95465
2507.09697,0.95400
2505.16843,0.95346
2503.23990,0.95309
2501.31136,0.95279
2499.38283,0.95247
2497.45429,0.95233
2495.52575,0.95261
2493.59722,0.95324
2491.66868,0.95400
2489.74014,0.95484
2487.81161,0.95568
2485.88307,0.95625
2483.95454,0.95651
2482.02600,0.95667
2480.09746,0.95673
2478.16893,0.95652
2476.24039,0.95589
2474.31186,0.95511
2472.38332,0.95479
2470.45478,0.95529
2468.52625,0.95630
2466.59771,0.95726
2464.66918,0.95788
2462.74064,0.95830
2460.81210,0.95869
2458.88357,0.95909
2456.95503,0.95939
2455.02649,0.95955
2453.09796,0.95963
2451.16942,0.95968
2449.24089,0.95965
2447.31235,0.95947
2445.38381,0.95924
2443.45528,0.95906
2441.52674,0.95890
2439.59821,0.95879
2437.66967,0.95875
2435.74113,0.95860
2433.81260,0.95823
2431.88406,0.95784
2429.95552,0.95760
2428.02699,0.95750
2426.09845,0.95754
2424.16992,0.95770
2422.24138,0.95800
2420.31284,0.95842
2418.38431,0.95886
2416.45577,0.95914
2414.52724,0.95910
2412.59870,0.95874
2410.67016,0.95827
2408.74163,0.95803
2406.81309,0.95821
2404.88456,0.95877
2402.95602,0.95945
2401.02748,0.95998
2399.09895,0.96039
2397.17041,0.96072
2395.24187,0.96087
2393.31334,0.96088
2391.38480,0.96082
2389.45627,0.96061
2387.52773,0.96013
2385.59919,0.95944
2383.67066,0.95863
2381.74212,0.95783
2379.81359,0.95720
2377.88505,0.95693
2375.95651,0.95700
2374.02798,0.95709
2372.09944,0.95699
2370.17090,0.95690
2368.24237,0.95682
2366.31383,0.95634
2364.38530,0.95538
2362.45676,0.95438
2360.52822,0.95357
2358.59969,0.95274
2356.67115,0.95247
2354.74262,0.95334
2352.81408,0.95473
2350.88554,0.95595
2348.95701,0.95652
2347.02847,0.95612
2345.09994,0.95493
2343.17140,0.95410
2341.24286,0.95403
2339.31433,0.95397
2337.38579,0.95394
2335.45725,0.95422
2333.52872,0.95455
2331.60018,0.95456
2329.67165,0.95449
2327.74311,0.95489
2325.81457,0.95564
2323.88604,0.95638
2321.95750,0.95690
2320.02897,0.95718
2318.10043,0.95739
2316.17189,0.95770
2314.24336,0.95822
2312.31482,0.95910
2310.38628,0.96020
2308.45775,0.96120
2306.52921,0.96204
2304.60068,0.96281
2302.67214,0.96352
2300.74360,0.96399
2298.81507,0.96426
2296.88653,0.96452
2294.95800,0.96488
2293.02946,0.96524
2291.10092,0.96551
2289.17239,0.96571
2287.24385,0.96585
2285.31532,0.96589
2283.38678,0.96592
2281.45824,0.96603
2279.52971,0.96617
2277.60117,0.96632
2275.67263,0.96664
2273.74410,0.96705
2271.81556,0.96725
2269.88703,0.96736
2267.95849,0.96756
2266.02995,0.96759
2264.10142,0.96734
2262.17288,0.96710
2260.24435,0.96697
2258.31581,0.96668
2256.38727,0.96616
2254.45874,0.96566
2252.53020,0.96510
2250.60166,0.96434
2248.67313,0.96368
2246.74459,0.96343
2244.81606,0.96358
2242.88752,0.96402
2240.95898,0.96454
2239.03045,0.96501
2237.10191,0.96571
2235.17338,0.96673
2233.24484,0.96766
2231.31630,0.96826
2229.38777,0.96864
2227.45923,0.96893
2225.53070,0.96926
2223.60216,0.96960
2221.67362,0.96971
2219.74509,0.96975
2217.81655,0.97003
2215.88801,0.97022
2213.95948,0.97009
2212.03094,0.96981
2210.10241,0.96965
2208.17387,0.96974
2206.24533,0.96991
2204.31680,0.97004
2202.38826,0.97035
2200.45973,0.97084
2198.53119,0.97095
2196.60265,0.97048
2194.67412,0.96987
2192.74558,0.96959
2190.81704,0.96964
2188.88851,0.96966
2186.95997,0.96959
2185.03144,0.96982
2183.10290,0.97049
2181.17436,0.97108
2179.24583,0.97127
2177.31729,0.97130
2175.38876,0.97124
2173.46022,0.97119
2171.53168,0.97140
2169.60315,0.97193
2167.67461,0.97257
2165.74607,0.97314
2163.81754,0.97372
2161.88900,0.97443
2159.96047,0.97523
2158.03193,0.97578
2156.10339,0.97569
2154.17486,0.97503
2152.24632,0.97428
2150.31779,0.97380
2148.38925,0.97365
2146.46071,0.97360
2144.53218,0.97333
2142.60364,0.97295
2140.67511,0.97273
2138.74657,0.97263
2136.81803,0.97235
2134.88950,0.97158
2132.96096,0.97068
2131.03242,0.96998
2129.10389,0.96944
2127.17535,0.96918
2125.24682,0.96937
2123.31828,0.96974
2121.38974,0.97017
2119.46121,0.97067
2117.53267,0.97091
2115.60414,0.97094
2113.67560,0.97106
2111.74706,0.97114
2109.81853,0.97092
2107.88999,0.97069
2105.96145,0.97082
2104.03292,0.97110
2102.10438,0.97120
2100.17585,0.97119
2098.24731,0.97126
2096.31877,0.97150
2094.39024,0.97192
2092.46170,0.97237
2090.53317,0.97269
2088.60463,0.97288
2086.67609,0.97302
2084.74756,0.97311
2082.81902,0.97316
2080.89049,0.97315
2078.96195,0.97298
2077.03341,0.97270
2075.10488,0.97247
2073.17634,0.97198
2071.24780,0.97094
2069.31927,0.96965
2067.39073,0.96874
2065.46220,0.96878
2063.53366,0.96962
2061.60512,0.97068
2059.67659,0.97168
2057.74805,0.97254
2055.81952,0.97329
2053.89098,0.97395
2051.96244,0.97428
2050.03391,0.97435
2048.10537,0.97450
2046.17683,0.97446
2044.24830,0.97413
2042.31976,0.97405
2040.39123,0.97426
2038.46269,0.97420
2036.53415,0.97396
2034.60562,0.97381
2032.67708,0.97373
2030.74855,0.97395
2028.82001,0.97452
2026.89147,0.97496
2024.96294,0.97531
2023.03440,0.97605
2021.10587,0.97673
2019.17733,0.97706
2017.24879,0.97738
2015.32026,0.97765
2013.39172,0.97790
2011.46318,0.97853
2009.53465,0.97944
2007.60611,0.98005
2005.67758,0.98032
2003.74904,0.98059
2001.82050,0.98090
1999.89197,0.98101
1997.96343,0.98095
1996.03490,0.98113
1994.10636,0.98144
1992.17782,0.98159
1990.24929,0.98158
1988.32075,0.98147
1986.39221,0.98124
1984.46368,0.98108
1982.53514,0.98133
1980.60661,0.98172
1978.67807,0.98174
1976.74953,0.98115
1974.82100,0.98029
1972.89246,0.97969
1970.96393,0.97966
1969.03539,0.97998
1967.10685,0.97985
1965.17832,0.97904
1963.24978,0.97805
1961.32125,0.97736
1959.39271,0.97715
1957.46417,0.97704
1955.53564,0.97688
1953.60710,0.97692
1951.67856,0.97718
1949.75003,0.97720
1947.82149,0.97692
1945.89296,0.97646
1943.96442,0.97497
1942.03588,0.97012
1940.10735,0.96239
1938.17881,0.95705
1936.25028,0.95794
1934.32174,0.96344
1932.39320,0.96866
1930.46467,0.97155
1928.53613,0.97287
1926.60759,0.97350
1924.67906,0.97405
1922.75052,0.97463
1920.82199,0.97504
1918.89345,0.97511
1916.96491,0.97473
1915.03638,0.97408
1913.10784,0.97359
1911.17931,0.97354
1909.25077,0.97371
1907.32223,0.97379
1905.39370,0.97384
1903.46516,0.97404
1901.53663,0.97441
1899.60809,0.97477
1897.67955,0.97517
1895.75102,0.97553
1893.82248,0.97578
1891.89394,0.97595
1889.96541,0.97596
1888.03687,0.97579
1886.10834,0.97557
1884.17980,0.97535
1882.25126,0.97508
1880.32273,0.97486
1878.39419,0.97474
1876.46566,0.97469
1874.53712,0.97468
1872.60858,0.97468
1870.68005,0.97463
1868.75151,0.97386
1866.82297,0.97164
1864.89444,0.96797
1862.96590,0.96266
1861.03737,0.95779
1859.10883,0.95768
1857.18029,0.96242
1855.25176,0.96758
1853.32322,0.97091
1851.39469,0.97271
1849.46615,0.97358
1847.53761,0.97399
1845.60908,0.97408
1843.68054,0.97366
1841.75200,0.97324
1839.82347,0.97328
1837.89493,0.97355
1835.96640,0.97383
1834.03786,0.97397
1832.10932,0.97410
1830.18079,0.97440
1828.25225,0.97465
1826.32372,0.97474
1824.39518,0.97476
1822.46664,0.97462
1820.53811,0.97436
1818.60957,0.97409
1816.68104,0.97388
1814.75250,0.97381
1812.82396,0.97400
1810.89543,0.97425
1808.96689,0.97426
1807.03835,0.97414
1805.10982,0.97411
1803.18128,0.97423
1801.25275,0.97438
1799.32421,0.97434
1797.39567,0.97407
1795.46714,0.97379
1793.53860,0.97353
1791.61007,0.97282
1789.68153,0.97172
1787.75299,0.97054
1785.82446,0.96867
1783.89592,0.96614
1781.96738,0.96456
1780.03885,0.96493
1778.11031,0.96616
1776.18178,0.96703
1774.25324,0.96765
1772.32470,0.96843
1770.39617,0.96898
1768.46763,0.96894
1766.53910,0.96859
1764.61056,0.96827
1762.68202,0.96818
1760.75349,0.96821
1758.82495,0.96786
1756.89642,0.96687
1754.96788,0.96566
1753.03934,0.96461
1751.11081,0.96338
1749.18227,0.96145
1747.25373,0.95927
1745.32520,0.95706
1743.39666,0.95459
1741.46813,0.95196
1739.53959,0.94941
1737.61105,0.94772
1735.68252,0.94693
1733.75398,0.94625
1731.82545,0.94571
1729.89691,0.94567
1727.96837,0.94553
1726.03984,0.94501
1724.11130,0.94430
1722.18276,0.94360
1720.25423,0.94305
1718.32569,0.94231
1716.39716,0.94036
1714.46862,0.93803
1712.54008,0.93653
1710.61155,0.93555
1708.68301,0.93492
1706.75448,0.93496
1704.82594,0.93580
1702.89740,0.93676
1700.96887,0.93833
1699.04033,0.94122
1697.11180,0.94422
1695.18326,0.94704
1693.25472,0.94901
1691.32619,0.95050
1689.39765,0.95214
1687.46911,0.95354
1685.54058,0.95562
1683.61204,0.96040
1681.68351,0.96334
1679.75497,0.96418
1677.82643,0.96459
1675.89790,0.96482
1673.96936,0.96486
1672.04083,0.96492
1670.11229,0.96496
1668.18375,0.96456
1666.25522,0.96400
1664.32668,0.96319
1662.39814,0.96148
1660.46961,0.95889
1658.54107,0.95605
1656.61254,0.95273
1654.68400,0.94331
1652.75546,0.90643
1650.82693,0.88016
1648.89839,0.86904
1646.96986,0.85569
1645.04132,0.85822
1643.11278,0.87383
1641.18425,0.89158
1639.25571,0.90659
1637.32718,0.91773
1635.39864,0.92647
1633.47010,0.92783
1631.54157,0.92493
1629.61303,0.91896
1627.68449,0.91094
1625.75596,0.90700
1623.82742,0.91139
1621.89889,0.92012
1619.97035,0.92522
1618.04181,0.92799
1616.11328,0.92938
1614.18474,0.92759
1612.25621,0.92260
1610.32767,0.91154
1608.39913,0.88735
1606.47060,0.84151
1604.54206,0.76439
1602.61352,0.66660
1600.68499,0.60967
1598.75645,0.62421
1596.82792,0.66796
1594.89938,0.69469
1592.97084,0.68799
1591.04231,0.66521
1589.11377,0.65665
1587.18524,0.68241
1585.25670,0.73278
1583.32816,0.78298
1581.39963,0.81875
1579.47109,0.84156
1577.54256,0.86262
1575.61402,0.88980
1573.68548,0.90474
1571.75695,0.91027
1569.82841,0.91548
1567.89987,0.91971
1565.97134,0.92077
1564.04280,0.92087
1562.11427,0.92092
1560.18573,0.92123
1558.25719,0.92115
1556.32866,0.91871
1554.40012,0.91668
1552.47159,0.91449
1550.54305,0.91172
1548.61451,0.90758
1546.68598,0.90264
1544.75744,0.89545
1542.82890,0.88335
1540.90037,0.86163
1538.97183,0.83707
1537.04330,0.82752
1535.11476,0.81502
1533.18622,0.78504
1531.25769,0.74908
1529.32915,0.71178
1527.40062,0.64949
1525.47208,0.56881
1523.54354,0.51750
1521.61501,0.50773
1519.68647,0.52512
1517.75793,0.55571
1515.82940,0.60018
1513.90086,0.63508
1511.97233,0.65961
1510.04379,0.67972
1508.11525,0.68514
1506.18672,0.65155
1504.25818,0.62145
1502.32965,0.59260
1500.40111,0.55409
1498.47257,0.50930
1496.54404,0.47978
1494.61550,0.47776
1492.68697,0.48382
1490.75843,0.48603
1488.82989,0.45722
1486.90136,0.38867
1484.97282,0.32225
1483.04428,0.27059
1481.11575,0.24603
1479.18721,0.25917
1477.25868,0.30141
1475.33014,0.36410
1473.40160,0.45010
1471.47307,0.51329
1469.54453,0.50857
1467.61600,0.47339
1465.68746,0.44100
1463.75892,0.45481
1461.83039,0.49498
1459.90185,0.52974
1457.97331,0.56861
1456.04478,0.59313
1454.11624,0.57752
1452.18771,0.55417
1450.25917,0.54898
1448.33063,0.59022
1446.40210,0.66011
1444.47356,0.70836
1442.54503,0.73293
1440.61649,0.74312
1438.68795,0.73478
1436.75942,0.68496
1434.83088,0.61359
1432.90235,0.57459
1430.97381,0.55486
1429.04527,0.54110
1427.11674,0.53136
1425.18820,0.52645
1423.25966,0.52956
1421.33113,0.54320
1419.40259,0.57173
1417.47406,0.60611
1415.54552,0.62899
1413.61698,0.65496
1411.68845,0.68808
1409.75991,0.71642
1407.83138,0.73453
1405.90284,0.75255
1403.97430,0.77452
1402.04577,0.79096
1400.11723,0.80201
1398.18869,0.81074
1396.26016,0.81377
1394.33162,0.80472
1392.40309,0.78355
1390.47455,0.75968
1388.54601,0.75066
1386.61748,0.77643
1384.68894,0.81253
1382.76041,0.83540
1380.83187,0.85034
1378.90333,0.86124
1376.97480,0.86925
1375.04626,0.87598
1373.11773,0.88149
1371.18919,0.88359
1369.26065,0.88311
1367.33212,0.88090
1365.40358,0.87803
1363.47504,0.87439
1361.54651,0.86875
1359.61797,0.86155
1357.68944,0.85076
1355.76090,0.83142
1353.83236,0.79653
1351.90383,0.73795
1349.97529,0.65319
1348.04676,0.57275
1346.11822,0.53521
1344.18968,0.52360
1342.26115,0.49221
1340.33261,0.41160
1338.40407,0.31523
1336.47554,0.28849
1334.54700,0.32723
1332.61847,0.39289
1330.68993,0.45197
1328.76139,0.48303
1326.83286,0.49104
1324.90432,0.49458
1322.97579,0.51081
1321.04725,0.54997
1319.11871,0.60655
1317.19018,0.65894
1315.26164,0.69646
1313.33311,0.72678
1311.40457,0.75443
1309.47603,0.77934
1307.54750,0.80223
1305.61896,0.82209
1303.69042,0.83806
1301.76189,0.85036
1299.83335,0.85912
1297.90482,0.86471
1295.97628,0.86693
1294.04774,0.86516
1292.11921,0.85954
1290.19067,0.85290
1288.26214,0.84964
1286.33360,0.85070
1284.40506,0.85170
1282.47653,0.84811
1280.54799,0.84186
1278.61945,0.84017
1276.69092,0.84552
1274.76238,0.85175
1272.83385,0.85207
1270.90531,0.84335
1268.97677,0.82472
1267.04824,0.79584
1265.11970,0.75441
1263.19117,0.70021
1261.26263,0.63940
1259.33409,0.58041
1257.40556,0.53103
1255.47702,0.50650
1253.54849,0.52366
1251.61995,0.57495
1249.69141,0.63101
1247.76288,0.66802
1245.83434,0.67424
1243.90580,0.63246
1241.97727,0.53317
1240.04873,0.43104
1238.12020,0.41498
1236.19166,0.49525
1234.26312,0.60196
1232.33459,0.68473
1230.40605,0.74026
1228.47752,0.77770
1226.54898,0.80314
1224.62044,0.82095
1222.69191,0.83398
1220.76337,0.84393
1218.83483,0.85212
1216.90630,0.85936
1214.97776,0.86634
1213.04923,0.87325
1211.12069,0.87948
1209.19215,0.88420
1207.26362,0.88714
1205.33508,0.88860
1203.40655,0.88861
1201.47801,0.88711
1199.54947,0.88367
1197.62094,0.87662
1195.69240,0.86243
1193.76387,0.84230
1191.83533,0.83020
1189.90679,0.83717
1187.97826,0.85239
1186.04972,0.85830
1184.12118,0.85071
1182.19265,0.83280
1180.26411,0.80558
1178.33558,0.76677
1176.40704,0.71188
1174.47850,0.64574
1172.54997,0.59286
1170.62143,0.56771
1168.69290,0.53843
1166.76436,0.46768
1164.83582,0.36906
1162.90729,0.28124
1160.97875,0.23827
1159.05021,0.26092
1157.12168,0.32054
1155.19314,0.36635
1153.26461,0.39499
1151.33607,0.43358
1149.40753,0.49026
1147.47900,0.55428
1145.55046,0.61364
1143.62193,0.66175
1141.69339,0.69815
1139.76485,0.72557
1137.83632,0.74522
1135.90778,0.75308
1133.97924,0.74377
1132.05071,0.72393
1130.12217,0.71067
1128.19364,0.71194
1126.26510,0.71756
1124.33656,0.70841
1122.40803,0.68725
1120.47949,0.68947
1118.55096,0.72928
1116.62242,0.77671
1114.69388,0.80806
1112.76535,0.82627
1110.83681,0.83877
1108.90828,0.84801
1106.97974,0.85435
1105.05120,0.85816
1103.12267,0.85942
1101.19413,0.85757
1099.26559,0.85168
1097.33706,0.84036
1095.40852,0.82118
1093.47999,0.78835
1091.55145,0.73299
1089.62291,0.65525
1087.69438,0.57933
1085.76584,0.54181
1083.83731,0.55908
1081.90877,0.61583
1079.98023,0.68120
1078.05170,0.72867
1076.12316,0.74543
1074.19462,0.72651
1072.26609,0.66550
1070.33755,0.56854
1068.40902,0.47352
1066.48048,0.42423
1064.55194,0.43000
1062.62341,0.47120
1060.69487,0.52617
1058.76634,0.57881
1056.83780,0.62044
1054.90926,0.65283
1052.98073,0.68129
1051.05219,0.70495
1049.12366,0.71831
1047.19512,0.72005
1045.26658,0.71168
1043.33805,0.68733
1041.40951,0.63041
1039.48097,0.53257
1037.55244,0.42772
1035.62390,0.37924
1033.69537,0.41308
1031.76683,0.49566
1029.83829,0.58088
1027.90976,0.64744
1025.98122,0.69600
1024.05269,0.73323
1022.12415,0.76196
1020.19561,0.78180
1018.26708,0.79273
1016.33854,0.79533
1014.41000,0.78854
1012.48147,0.76691
1010.55293,0.71951
1008.62440,0.63554
1006.69586,0.51682
1004.76732,0.38391
1002.83879,0.27011
1000.91025,0.20436
998.98172,0.18910
997.05318,0.20146
995.12464,0.22389
993.19611,0.26357
991.26757,0.33040
989.33904,0.41191
987.41050,0.48673
985.48196,0.54434
983.55343,0.58503
981.62489,0.61458
979.69635,0.63870
977.76782,0.65935
975.83928,0.67541
973.91075,0.68295
971.98221,0.68087
970.05367,0.68135
968.12514,0.69704
966.19660,0.72130
964.26807,0.74150
962.33953,0.75541
960.41099,0.76558
958.48246,0.77352
956.55392,0.77949
954.62538,0.78291
952.69685,0.78286
950.76831,0.77846
948.83978,0.76854
946.91124,0.75007
944.98270,0.71692
943.05417,0.66161
941.12563,0.58479
939.19710,0.50942
937.26856,0.47487
935.34002,0.50036
933.41149,0.56567
931.48295,0.63687
929.55442,0.69436
927.62588,0.73473
925.69734,0.76121
923.76881,0.77727
921.84027,0.78513
919.91173,0.78682
917.98320,0.78472
916.05466,0.77989
914.12613,0.76993
912.19759,0.74850
910.26905,0.70829
908.34052,0.64729
906.41198,0.57660
904.48345,0.51973
902.55491,0.49767
900.62637,0.51340
898.69784,0.55286
896.76930,0.59733
894.84076,0.63035
892.91223,0.64577
890.98369,0.65641
889.05516,0.67695
887.12662,0.70435
885.19808,0.72983
883.26955,0.75146
881.34101,0.76961
879.41248,0.78330
877.48394,0.78973
875.55540,0.78320
873.62687,0.75880
871.69833,0.72612
869.76980,0.70458
867.84126,0.68918
865.91272,0.65699
863.98419,0.61622
862.05565,0.60250
860.12711,0.62943
858.19858,0.67831
856.27004,0.72641
854.34151,0.76356
852.41297,0.78993
850.48443,0.80899
848.55590,0.82332
846.62736,0.83423
844.69883,0.84248
842.77029,0.84894
840.84175,0.85468
838.91322,0.86031
836.98468,0.86577
835.05614,0.87116
833.12761,0.87676
831.19907,0.88250
829.27054,0.88805
827.34200,0.89304
825.41346,0.89712
823.48493,0.90020
821.55639,0.90230
819.62786,0.90315
817.69932,0.90253
815.77078,0.90054
813.84225,0.89682
811.91371,0.88900
809.98517,0.86960
808.05664,0.82353
806.12810,0.74289
804.19957,0.65785
802.27103,0.62181
800.34249,0.63687
798.41396,0.63983
796.48542,0.59710
794.55689,0.56045
792.62835,0.58383
790.69981,0.64258
788.77128,0.67621
786.84274,0.64927
784.91421,0.55821
782.98567,0.44932
781.05713,0.40657
779.12860,0.46128
777.20006,0.56332
775.27152,0.65550
773.34299,0.71681
771.41445,0.74664
769.48592,0.74922
767.55738,0.72755
765.62884,0.67059
763.70031,0.57137
761.77177,0.48285
759.84324,0.47342
757.91470,0.51318
755.98616,0.51618
754.05763,0.48112
752.12909,0.48120
750.20055,0.53711
748.27202,0.60146
746.34348,0.64082
744.41495,0.65781
742.48641,0.66344
740.55787,0.66615
738.62934,0.67189
736.70080,0.68344
734.77227,0.70024
732.84373,0.71895
730.91519,0.73483
728.98666,0.74224
727.05812,0.73314
725.12959,0.69559
723.20105,0.62442
721.27251,0.54339
719.34398,0.50333
717.41544,0.52839
715.48690,0.59027
713.55837,0.65232
711.62983,0.69701
709.70130,0.72399
707.77276,0.73778
705.84422,0.73791
703.91569,0.71505
701.98715,0.66084
700.05862,0.59740
698.13008,0.57346
696.20154,0.60326
694.27301,0.64627
692.34447,0.66059
690.41593,0.63495
688.48740,0.59821
686.55886,0.60574
684.63033,0.66847
682.70179,0.74228
680.77325,0.79272
678.84472,0.81982
676.91618,0.83456
674.98765,0.84351
673.05911,0.84932
671.13057,0.85287
669.20204,0.85445
667.27350,0.85249
665.34497,0.84514
663.41643,0.83275
661.48789,0.82280
659.55936,0.82608
657.63082,0.83680
655.70228,0.84236
653.77375,0.84052
651.84521,0.82898
649.91668,0.79247
647.98814,0.72133
646.05960,0.65774
644.13107,0.66137
642.20253,0.71884
640.27400,0.76968
638.34546,0.79052
636.41692,0.79231
634.48839,0.78756
632.55985,0.78581
630.63131,0.79316
628.70278,0.80959
626.77424,0.83065
624.84571,0.85059
622.91717,0.86486
620.98863,0.87320
619.06010,0.87713
617.13156,0.87771
615.20303,0.87741
613.27449,0.87872
611.34595,0.88140
609.41742,0.88379
607.48888,0.88514
605.56035,0.88557
603.63181,0.88521
601.70327,0.88389
599.77474,0.88130
597.84620,0.87752
595.91766,0.87267
593.98913,0.86657
592.06059,0.85870
590.13206,0.84889
588.20352,0.83776
586.27498,0.82536
584.34645,0.81166
582.41791,0.79568
580.48938,0.77542
578.56084,0.75042
576.63230,0.71834
574.70377,0.67818
572.77523,0.63451
570.84669,0.58891
568.91816,0.54370
566.98962,0.50733
565.06109,0.48486
563.13255,0.47358
561.20401,0.46785
559.27548,0.46392
557.34694,0.46415
555.41841,0.47526
553.48987,0.49945
551.56133,0.53247
549.63280,0.56933
547.70426,0.60563
545.77573,0.63702
543.84719,0.65863
541.91865,0.66624
539.99012,0.65382
538.06158,0.60976
536.13304,0.52650
534.20451,0.42490
532.27597,0.35299
530.34744,0.34287
528.41890,0.38787
526.49036,0.46534
524.56183,0.54417
522.63329,0.59919
520.70476,0.63719
518.77622,0.66941
516.84768,0.69711
514.91915,0.71737
512.99061,0.73104
511.06207,0.73926
509.13354,0.74107
507.20500,0.73562
505.27647,0.72386
503.34793,0.70430
501.41939,0.66631
499.49086,0.60180
497.56232,0.51239
495.63379,0.41844
493.70525,0.36197
491.77671,0.37226
489.84818,0.43448
487.91964,0.50982
485.99110,0.58282
484.06257,0.64847
482.13403,0.69794
480.20550,0.73110
478.27696,0.75411
476.34842,0.76882
474.41989,0.77509
472.49135,0.77251
470.56282,0.75744
468.63428,0.71940
466.70574,0.63884
464.77721,0.52087
462.84867,0.41798
460.92014,0.39298
458.99160,0.45741
457.06306,0.55320
455.13453,0.59894
453.20599,0.61051
451.27745,0.63104
449.34892,0.66675
447.42038,0.70716
445.49185,0.74276
443.56331,0.76941
441.63477,0.78864
439.70624,0.79977
437.77770,0.80662
435.84917,0.81309
433.92063,0.81907
431.99209,0.82273
430.06356,0.82231
428.13502,0.81707
426.20648,0.80946
424.27795,0.80488
422.34941,0.80762
420.42088,0.81812
418.49234,0.83723
416.56380,0.84838
414.63527,0.85151
412.70673,0.85451
410.77820,0.85734
408.84966,0.85906
406.92112,0.86062
404.99259,0.86190
403.06405,0.86190
401.13552,0.85974
399.20698,0.85524
