3997.85540,0.97473
3995.92686,0.97455
3993.99833,0.97452
3992.06979,0.97461
3990.14125,0.97464
3988.21272,0.97455
3986.28418,0.97441
3984.35565,0.97432
3982.42711,0.97443
3980.49857,0.97468
3978.57004,0.97490
3976.64150,0.97508
3974.71297,0.97528
3972.78443,0.97550
3970.85589,0.97570
3968.92736,0.97587
3966.99882,0.97599
3965.07029,0.97604
3963.14175,0.97606
3961.21321,0.97616
3959.28468,0.97634
3957.35614,0.97654
3955.42760,0.97661
3953.49907,0.97656
3951.57053,0.97652
3949.64200,0.97661
3947.71346,0.97669
3945.78492,0.97660
3943.85639,0.97646
3941.92785,0.97645
3939.99932,0.97656
3938.07078,0.97663
3936.14224,0.97659
3934.21371,0.97649
3932.28517,0.97654
3930.35663,0.97675
3928.42810,0.97679
3926.49956,0.97664
3924.57103,0.97659
3922.64249,0.97666
3920.71395,0.97666
3918.78542,0.97660
3916.85688,0.97653
3914.92835,0.97645
3912.99981,0.97637
3911.07127,0.97618
3909.14274,0.97585
3907.21420,0.97545
3905.28566,0.97521
3903.35713,0.97537
3901.42859,0.97566
3899.50006,0.97588
3897.57152,0.97606
3895.64298,0.97610
3893.71445,0.97605
3891.78591,0.97609
3889.85738,0.97624
3887.92884,0.97626
3886.00030,0.97628
3884.07177,0.97635
3882.14323,0.97636
3880.21470,0.97658
3878.28616,0.97685
3876.35762,0.97675
3874.42909,0.97649
3872.50055,0.97636
3870.57201,0.97652
3868.64348,0.97677
3866.71494,0.97675
3864.78641,0.97675
3862.85787,0.97706
3860.92933,0.97722
3859.00080,0.97699
3857.07226,0.97654
3855.14373,0.97611
3853.21519,0.97627
3851.28665,0.97694
3849.35812,0.97723
3847.42958,0.97722
3845.50104,0.97714
3843.57251,0.97712
3841.64397,0.97698
3839.71544,0.97668
3837.78690,0.97674
3835.85836,0.97707
3833.92983,0.97717
3832.00129,0.97712
3830.07276,0.97708
3828.14422,0.97711
3826.21568,0.97713
3824.28715,0.97700
3822.35861,0.97680
3820.43008,0.97694
3818.50154,0.97717
3816.57300,0.97729
3814.64447,0.97749
3812.71593,0.97750
3810.78739,0.97730
3808.85886,0.97710
3806.93032,0.97710
3805.00179,0.97708
3803.07325,0.97682
3801.14471,0.97684
3799.21618,0.97714
3797.28764,0.97731
3795.35911,0.97755
3793.43057,0.97774
3791.50203,0.97772
3789.57350,0.97763
3787.64496,0.97758
3785.71642,0.97764
3783.78789,0.97776
3781.85935,0.97778
3779.93082,0.97773
3778.00228,0.97767
3776.07374,0.97760
3774.14521,0.97758
3772.21667,0.97765
3770.28814,0.97776
3768.35960,0.97780
3766.43106,0.97775
3764.50253,0.97771
3762.57399,0.97765
3760.64546,0.97760
3758.71692,0.97767
3756.78838,0.97772
3754.85985,0.97755
3752.93131,0.97726
3751.00277,0.97717
3749.07424,0.97734
3747.14570,0.97735
3745.21717,0.97738
3743.28863,0.97764
3741.36009,0.97772
3739.43156,0.97749
3737.50302,0.97709
3735.57449,0.97695
3733.64595,0.97732
3731.71741,0.97765
3729.78888,0.97766
3727.86034,0.97749
3725.93180,0.97750
3724.00327,0.97781
3722.07473,0.97812
3720.14620,0.97834
3718.21766,0.97851
3716.28912,0.97849
3714.36059,0.97823
3712.43205,0.97798
3710.50352,0.97828
3708.57498,0.97864
3706.64644,0.97860
3704.71791,0.97841
3702.78937,0.97827
3700.86084,0.97818
3698.93230,0.97806
3697.00376,0.97792
3695.07523,0.97780
3693.14669,0.97765
3691.21815,0.97744
3689.28962,0.97749
3687.36108,0.97781
3685.43255,0.97784
3683.50401,0.97762
3681.57547,0.97739
3679.64694,0.97726
3677.71840,0.97715
3675.78987,0.97706
3673.86133,0.97716
3671.93279,0.97726
3670.00426,0.97750
3668.07572,0.97770
3666.14718,0.97760
3664.21865,0.97747
3662.29011,0.97742
3660.36158,0.97730
3658.43304,0.97702
3656.50450,0.97676
3654.57597,0.97663
3652.64743,0.97641
3650.71890,0.97610
3648.79036,0.97608
3646.86182,0.97630
3644.93329,0.97637
3643.00475,0.97635
3641.07622,0.97635
3639.14768,0.97630
3637.21914,0.97608
3635.29061,0.97581
3633.36207,0.97565
3631.43353,0.97553
3629.50500,0.97542
3627.57646,0.97551
3625.64793,0.97561
3623.71939,0.97555
3621.79085,0.97536
3619.86232,0.97524
3617.93378,0.97540
3616.00525,0.97557
3614.07671,0.97557
3612.14817,0.97551
3610.21964,0.97552
3608.29110,0.97557
3606.36256,0.97556
3604.43403,0.97544
3602.50549,0.97533
3600.57696,0.97529
3598.64842,0.97526
3596.71988,0.97519
3594.79135,0.97523
3592.86281,0.97534
3590.93428,0.97538
3589.00574,0.97537
3587.07720,0.97543
3585.14867,0.97544
3583.22013,0.97534
3581.29160,0.97530
3579.36306,0.97533
3577.43452,0.97539
3575.50599,0.97539
3573.57745,0.97533
3571.64891,0.97522
3569.72038,0.97498
3567.79184,0.97474
3565.86331,0.97489
3563.93477,0.97522
3562.00623,0.97538
3560.07770,0.97535
3558.14916,0.97525
3556.22063,0.97524
3554.29209,0.97526
3552.36355,0.97528
3550.43502,0.97522
3548.50648,0.97502
3546.57794,0.97485
3544.64941,0.97497
3542.72087,0.97517
3540.79234,0.97515
3538.86380,0.97502
3536.93526,0.97494
3535.00673,0.97495
3533.07819,0.97503
3531.14966,0.97514
3529.22112,0.97519
3527.29258,0.97514
3525.36405,0.97504
3523.43551,0.97510
3521.50697,0.97533
3519.57844,0.97548
3517.64990,0.97550
3515.72137,0.97550
3513.79283,0.97556
3511.86429,0.97571
3509.93576,0.97585
3508.00722,0.97592
3506.07869,0.97593
3504.15015,0.97592
3502.22161,0.97600
3500.29308,0.97613
3498.36454,0.97623
3496.43601,0.97642
3494.50747,0.97666
3492.57893,0.97675
3490.65040,0.97675
3488.72186,0.97687
3486.79332,0.97707
3484.86479,0.97720
3482.93625,0.97718
3481.00772,0.97714
3479.07918,0.97723
3477.15064,0.97734
3475.22211,0.97736
3473.29357,0.97739
3471.36504,0.97753
3469.43650,0.97771
3467.50796,0.97780
3465.57943,0.97781
3463.65089,0.97781
3461.72235,0.97781
3459.79382,0.97777
3457.86528,0.97781
3455.93675,0.97795
3454.00821,0.97806
3452.07967,0.97809
3450.15114,0.97809
3448.22260,0.97812
3446.29407,0.97824
3444.36553,0.97836
3442.43699,0.97843
3440.50846,0.97850
3438.57992,0.97861
3436.65139,0.97868
3434.72285,0.97864
3432.79431,0.97852
3430.86578,0.97844
3428.93724,0.97841
3427.00870,0.97840
3425.08017,0.97839
3423.15163,0.97839
3421.22310,0.97842
3419.29456,0.97841
3417.36602,0.97827
3415.43749,0.97807
3413.50895,0.97799
3411.58042,0.97794
3409.65188,0.97781
3407.72334,0.97761
3405.79481,0.97736
3403.86627,0.97713
3401.93773,0.97696
3400.00920,0.97671
3398.08066,0.97629
3396.15213,0.97585
3394.22359,0.97540
3392.29505,0.97481
3390.36652,0.97416
3388.43798,0.97350
3386.50945,0.97274
3384.58091,0.97179
3382.65237,0.97069
3380.72384,0.96959
3378.79530,0.96854
3376.86677,0.96746
3374.93823,0.96634
3373.00969,0.96530
3371.08116,0.96427
3369.15262,0.96302
3367.22408,0.96157
3365.29555,0.96014
3363.36701,0.95887
3361.43848,0.95770
3359.50994,0.95652
3357.58140,0.95523
3355.65287,0.95386
3353.72433,0.95249
3351.79580,0.95109
3349.86726,0.94968
3347.93872,0.94832
3346.01019,0.94697
3344.08165,0.94556
3342.15311,0.94413
3340.22458,0.94277
3338.29604,0.94147
3336.36751,0.94012
3334.43897,0.93872
3332.51043,0.93730
3330.58190,0.93579
3328.65336,0.93421
3326.72483,0.93248
3324.79629,0.93059
3322.86775,0.92863
3320.93922,0.92661
3319.01068,0.92443
3317.08215,0.92207
3315.15361,0.91946
3313.22507,0.91654
3311.29654,0.91333
3309.36800,0.90983
3307.43946,0.90589
3305.51093,0.90146
3303.58239,0.89666
3301.65386,0.89186
3299.72532,0.88760
3297.79678,0.88451
3295.86825,0.88287
3293.93971,0.88226
3292.01118,0.88211
3290.08264,0.88241
3288.15410,0.88319
3286.22557,0.88409
3284.29703,0.88479
3282.36849,0.88518
3280.43996,0.88521
3278.51142,0.88495
3276.58289,0.88448
3274.65435,0.88377
3272.72581,0.88280
3270.79728,0.88166
3268.86874,0.88056
3266.94021,0.87952
3265.01167,0.87846
3263.08313,0.87738
3261.15460,0.87635
3259.22606,0.87538
3257.29753,0.87439
3255.36899,0.87333
3253.44045,0.87221
3251.51192,0.87101
3249.58338,0.86964
3247.65484,0.86813
3245.72631,0.86648
3243.79777,0.86466
3241.86924,0.86269
3239.94070,0.86052
3238.01216,0.85811
3236.08363,0.85545
3234.15509,0.85248
3232.22656,0.84913
3230.29802,0.84551
3228.36948,0.84156
3226.44095,0.83704
3224.51241,0.83196
3222.58387,0.82653
3220.65534,0.82083
3218.72680,0.81498
3216.79827,0.80943
3214.86973,0.80452
3212.94119,0.80034
3211.01266,0.79700
3209.08412,0.79453
3207.15559,0.79273
3205.22705,0.79143
3203.29851,0.79082
3201.36998,0.79138
3199.44144,0.79358
3197.51290,0.79760
3195.58437,0.80316
3193.65583,0.80970
3191.72730,0.81669
3189.79876,0.82365
3187.87022,0.83030
3185.94169,0.83671
3184.01315,0.84295
3182.08462,0.84890
3180.15608,0.85455
3178.22754,0.85998
3176.29901,0.86516
3174.37047,0.87010
3172.44194,0.87482
3170.51340,0.87917
3168.58486,0.88302
3166.65633,0.88650
3164.72779,0.88978
3162.79925,0.89296
3160.87072,0.89600
3158.94218,0.89892
3157.01365,0.90182
3155.08511,0.90474
3153.15657,0.90743
3151.22804,0.90966
3149.29950,0.91153
3147.37097,0.91339
3145.44243,0.91530
3143.51389,0.91710
3141.58536,0.91877
3139.65682,0.92034
3137.72828,0.92172
3135.79975,0.92290
3133.87121,0.92397
3131.94268,0.92494
3130.01414,0.92595
3128.08560,0.92706
3126.15707,0.92819
3124.22853,0.92925
3122.30000,0.93031
3120.37146,0.93140
3118.44292,0.93247
3116.51439,0.93351
3114.58585,0.93449
3112.65732,0.93537
3110.72878,0.93621
3108.80024,0.93701
3106.87171,0.93779
3104.94317,0.93859
3103.01463,0.93947
3101.08610,0.94033
3099.15756,0.94098
3097.22903,0.94132
3095.30049,0.94144
3093.37195,0.94154
3091.44342,0.94174
3089.51488,0.94196
3087.58635,0.94208
3085.65781,0.94213
3083.72927,0.94225
3081.80074,0.94245
3079.87220,0.94264
3077.94366,0.94272
3076.01513,0.94272
3074.08659,0.94282
3072.15806,0.94306
3070.22952,0.94334
3068.30098,0.94341
3066.37245,0.94291
3064.44391,0.94200
3062.51538,0.94129
3060.58684,0.94123
3058.65830,0.94175
3056.72977,0.94246
3054.80123,0.94307
3052.87270,0.94351
3050.94416,0.94367
3049.01562,0.94350
3047.08709,0.94326
3045.15855,0.94318
3043.23001,0.94293
3041.30148,0.94197
3039.37294,0.94032
3037.44441,0.93893
3035.51587,0.93821
3033.58733,0.93695
3031.65880,0.93417
3029.73026,0.93012
3027.80173,0.92583
3025.87319,0.92226
3023.94465,0.91908
3022.01612,0.91586
3020.08758,0.91454
3018.15904,0.91715
3016.23051,0.92255
3014.30197,0.92789
3012.37344,0.93160
3010.44490,0.93379
3008.51636,0.93518
3006.58783,0.93649
3004.65929,0.93797
3002.73076,0.93942
3000.80222,0.94086
2998.87368,0.94239
2996.94515,0.94367
2995.01661,0.94451
2993.08808,0.94477
2991.15954,0.94398
2989.23100,0.94216
2987.30247,0.93994
2985.37393,0.93772
2983.44539,0.93563
2981.51686,0.93328
2979.58832,0.92972
2977.65979,0.92463
2975.73125,0.91854
2973.80271,0.91181
2971.87418,0.90527
2969.94564,0.90039
2968.01711,0.89751
2966.08857,0.89570
2964.16003,0.89411
2962.23150,0.89223
2960.30296,0.89013
2958.37442,0.88833
2956.44589,0.88726
2954.51735,0.88694
2952.58882,0.88679
2950.66028,0.88612
2948.73174,0.88488
2946.80321,0.88300
2944.87467,0.88042
2942.94614,0.87732
2941.01760,0.87373
2939.08906,0.86991
2937.16053,0.86652
2935.23199,0.86387
2933.30346,0.86211
2931.37492,0.86130
2929.44638,0.86089
2927.51785,0.86036
2925.58931,0.86021
2923.66077,0.86123
2921.73224,0.86369
2919.80370,0.86749
2917.87517,0.87204
2915.94663,0.87659
2914.01809,0.88063
2912.08956,0.88398
2910.16102,0.88665
2908.23249,0.88891
2906.30395,0.89112
2904.37541,0.89333
2902.44688,0.89558
2900.51834,0.89829
2898.58980,0.90173
2896.66127,0.90546
2894.73273,0.90876
2892.80420,0.91148
2890.87566,0.91394
2888.94712,0.91620
2887.01859,0.91812
2885.09005,0.91955
2883.16152,0.92030
2881.23298,0.92027
2879.30444,0.91958
2877.37591,0.91851
2875.44737,0.91736
2873.51883,0.91621
2871.59030,0.91507
2869.66176,0.91423
2867.73323,0.91385
2865.80469,0.91340
2863.87615,0.91233
2861.94762,0.91057
2860.01908,0.90809
2858.09055,0.90493
2856.16201,0.90176
2854.23347,0.89957
2852.30494,0.89901
2850.37640,0.90011
2848.44787,0.90206
2846.51933,0.90357
2844.59079,0.90435
2842.66226,0.90514
2840.73372,0.90646
2838.80518,0.90828
2836.87665,0.91040
2834.94811,0.91293
2833.01958,0.91613
2831.09104,0.92028
2829.16250,0.92514
2827.23397,0.92982
2825.30543,0.93350
2823.37690,0.93593
2821.44836,0.93739
2819.51982,0.93826
2817.59129,0.93881
2815.66275,0.93921
2813.73421,0.93959
2811.80568,0.94004
2809.87714,0.94057
2807.94861,0.94117
2806.02007,0.94193
2804.09153,0.94273
2802.16300,0.94333
2800.23446,0.94379
2798.30593,0.94423
2796.37739,0.94464
2794.44885,0.94521
2792.52032,0.94629
2790.59178,0.94774
2788.66325,0.94901
2786.73471,0.94992
2784.80617,0.95081
2782.87764,0.95186
2780.94910,0.95289
2779.02056,0.95380
2777.09203,0.95463
2775.16349,0.95529
2773.23496,0.95561
2771.30642,0.95574
2769.37788,0.95599
2767.44935,0.95637
2765.52081,0.95675
2763.59228,0.95709
2761.66374,0.95745
2759.73520,0.95779
2757.80667,0.95802
2755.87813,0.95813
2753.94959,0.95820
2752.02106,0.95832
2750.09252,0.95844
2748.16399,0.95839
2746.23545,0.95817
2744.30691,0.95789
2742.37838,0.95771
2740.44984,0.95771
2738.52131,0.95777
2736.59277,0.95776
2734.66423,0.95769
2732.73570,0.95765
2730.80716,0.95769
2728.87863,0.95783
2726.95009,0.95798
2725.02155,0.95801
2723.09302,0.95793
2721.16448,0.95780
2719.23594,0.95766
2717.30741,0.95766
2715.37887,0.95785
2713.45034,0.95819
2711.52180,0.95870
2709.59326,0.95931
2707.66473,0.95986
2705.73619,0.96038
2703.80766,0.96095
2701.87912,0.96155
2699.95058,0.96209
2698.02205,0.96256
2696.09351,0.96290
2694.16497,0.96312
2692.23644,0.96328
2690.30790,0.96339
2688.37937,0.96343
2686.45083,0.96340
2684.52229,0.96343
2682.59376,0.96365
2680.66522,0.96392
2678.73669,0.96399
2676.80815,0.96384
2674.87961,0.96367
2672.95108,0.96354
2671.02254,0.96340
2669.09401,0.96326
2667.16547,0.96320
2665.23693,0.96319
2663.30840,0.96313
2661.37986,0.96299
2659.45132,0.96282
2657.52279,0.96261
2655.59425,0.96240
2653.66572,0.96224
2651.73718,0.96216
2649.80864,0.96217
2647.88011,0.96230
2645.95157,0.96248
2644.02304,0.96272
2642.09450,0.96305
2640.16596,0.96341
2638.23743,0.96372
2636.30889,0.96394
2634.38035,0.96414
2632.45182,0.96444
2630.52328,0.96483
2628.59475,0.96525
2626.66621,0.96565
2624.73767,0.96595
2622.80914,0.96609
2620.88060,0.96628
2618.95207,0.96666
2617.02353,0.96707
2615.09499,0.96733
2613.16646,0.96741
2611.23792,0.96745
2609.30939,0.96760
2607.38085,0.96787
2605.45231,0.96819
2603.52378,0.96849
2601.59524,0.96876
2599.66670,0.96899
2597.73817,0.96916
2595.80963,0.96920
2593.88110,0.96910
2591.95256,0.96893
2590.02402,0.96867
2588.09549,0.96834
2586.16695,0.96799
2584.23842,0.96761
2582.30988,0.96723
2580.38134,0.96699
2578.45281,0.96694
2576.52427,0.96707
2574.59573,0.96737
2572.66720,0.96777
2570.73866,0.96818
2568.81013,0.96857
2566.88159,0.96891
2564.95305,0.96919
2563.02452,0.96937
2561.09598,0.96944
2559.16745,0.96951
2557.23891,0.96965
2555.31037,0.96981
2553.38184,0.97001
2551.45330,0.97029
2549.52476,0.97062
2547.59623,0.97086
2545.66769,0.97106
2543.73916,0.97122
2541.81062,0.97123
2539.88208,0.97110
2537.95355,0.97097
2536.02501,0.97078
2534.09648,0.97051
2532.16794,0.97022
2530.23940,0.96991
2528.31087,0.96959
2526.38233,0.96931
2524.45380,0.96913
2522.52526,0.96902
2520.59672,0.96894
2518.66819,0.96895
2516.73965,0.96910
2514.81111,0.96935
2512.88258,0.96951
2510.95404,0.96957
2509.02551,0.96974
2507.09697,0.97001
2505.16843,0.97017
2503.23990,0.97011
2501.31136,0.96987
2499.38283,0.96954
2497.45429,0.96923
2495.52575,0.96902
2493.59722,0.96890
2491.66868,0.96884
2489.74014,0.96880
2487.81161,0.96886
2485.88307,0.96905
2483.95454,0.96921
2482.02600,0.96919
2480.09746,0.96907
2478.16893,0.96906
2476.24039,0.96922
2474.31186,0.96944
2472.38332,0.96967
2470.45478,0.96992
2468.52625,0.97016
2466.59771,0.97039
2464.66918,0.97057
2462.74064,0.97072
2460.81210,0.97085
2458.88357,0.97095
2456.95503,0.97104
2455.02649,0.97108
2453.09796,0.97107
2451.16942,0.97103
2449.24089,0.97098
2447.31235,0.97094
2445.38381,0.97101
2443.45528,0.97123
2441.52674,0.97151
2439.59821,0.97182
2437.66967,0.97215
2435.74113,0.97248
2433.81260,0.97277
2431.88406,0.97302
2429.95552,0.97314
2428.02699,0.97313
2426.09845,0.97308
2424.16992,0.97304
2422.24138,0.97297
2420.31284,0.97287
2418.38431,0.97278
2416.45577,0.97272
2414.52724,0.97263
2412.59870,0.97247
2410.67016,0.97228
2408.74163,0.97206
2406.81309,0.97186
2404.88456,0.97178
2402.95602,0.97181
2401.02748,0.97189
2399.09895,0.97201
2397.17041,0.97217
2395.24187,0.97233
2393.31334,0.97240
2391.38480,0.97235
2389.45627,0.97221
2387.52773,0.97201
2385.59919,0.97178
2383.67066,0.97150
2381.74212,0.97114
2379.81359,0.97068
2377.88505,0.97012
2375.95651,0.96942
2374.02798,0.96870
2372.09944,0.96805
2370.17090,0.96733
2368.24237,0.96647
2366.31383,0.96547
2364.38530,0.96455
2362.45676,0.96429
2360.52822,0.96459
2358.59969,0.96499
2356.67115,0.96581
2354.74262,0.96702
2352.81408,0.96825
2350.88554,0.96922
2348.95701,0.96954
2347.02847,0.96901
2345.09994,0.96793
2343.17140,0.96720
2341.24286,0.96699
2339.31433,0.96680
2337.38579,0.96642
2335.45725,0.96607
2333.52872,0.96614
2331.60018,0.96660
2329.67165,0.96718
2327.74311,0.96747
2325.81457,0.96737
2323.88604,0.96739
2321.95750,0.96800
2320.02897,0.96891
2318.10043,0.96970
2316.17189,0.97015
2314.24336,0.97023
2312.31482,0.97024
2310.38628,0.97036
2308.45775,0.97048
2306.52921,0.97062
2304.60068,0.97091
2302.67214,0.97124
2300.74360,0.97144
2298.81507,0.97148
2296.88653,0.97146
2294.95800,0.97140
2293.02946,0.97137
2291.10092,0.97157
2289.17239,0.97210
2287.24385,0.97282
2285.31532,0.97368
2283.38678,0.97455
2281.45824,0.97517
2279.52971,0.97552
2277.60117,0.97589
2275.67263,0.97640
2273.74410,0.97698
2271.81556,0.97739
2269.88703,0.97749
2267.95849,0.97753
2266.02995,0.97760
2264.10142,0.97759
2262.17288,0.97763
2260.24435,0.97778
2258.31581,0.97787
2256.38727,0.97783
2254.45874,0.97771
2252.53020,0.97760
2250.60166,0.97769
2248.67313,0.97809
2246.74459,0.97859
2244.81606,0.97899
2242.88752,0.97930
2240.95898,0.97964
2239.03045,0.97999
2237.10191,0.98020
2235.17338,0.98018
2233.24484,0.98002
2231.31630,0.97997
2229.38777,0.98007
2227.45923,0.98021
2225.53070,0.98032
2223.60216,0.98046
2221.67362,0.98084
2219.74509,0.98120
2217.81655,0.98108
2215.88801,0.98068
2213.95948,0.98052
2212.03094,0.98070
2210.10241,0.98105
2208.17387,0.98112
2206.24533,0.98078
2204.31680,0.98048
2202.38826,0.98042
2200.45973,0.98049
2198.53119,0.98053
2196.60265,0.98043
2194.67412,0.98033
2192.74558,0.98018
2190.81704,0.97997
2188.88851,0.98003
2186.95997,0.98031
2185.03144,0.98035
2183.10290,0.98040
2181.17436,0.98058
2179.24583,0.98055
2177.31729,0.98037
2175.38876,0.98019
2173.46022,0.98029
2171.53168,0.98070
2169.60315,0.98108
2167.67461,0.98139
2165.74607,0.98153
2163.81754,0.98156
2161.88900,0.98223
2159.96047,0.98368
2158.03193,0.98451
2156.10339,0.98426
2154.17486,0.98365
2152.24632,0.98306
2150.31779,0.98283
2148.38925,0.98313
2146.46071,0.98349
2144.53218,0.98348
2142.60364,0.98327
2140.67511,0.98315
2138.74657,0.98309
2136.81803,0.98303
2134.88950,0.98285
2132.96096,0.98250
2131.03242,0.98213
2129.10389,0.98185
2127.17535,0.98159
2125.24682,0.98137
2123.31828,0.98121
2121.38974,0.98118
2119.46121,0.98146
2117.53267,0.98180
2115.60414,0.98180
2113.67560,0.98155
2111.74706,0.98151
2109.81853,0.98168
2107.88999,0.98166
2105.96145,0.98146
2104.03292,0.98125
2102.10438,0.98102
2100.17585,0.98064
2098.24731,0.98030
2096.31877,0.98020
2094.39024,0.98015
2092.46170,0.98010
2090.53317,0.98016
2088.60463,0.98021
2086.67609,0.98016
2084.74756,0.98018
2082.81902,0.98033
2080.89049,0.98044
2078.96195,0.98050
2077.03341,0.98056
2075.10488,0.98043
2073.17634,0.98003
2071.24780,0.97957
2069.31927,0.97911
2067.39073,0.97864
2065.46220,0.97839
2063.53366,0.97852
2061.60512,0.97890
2059.67659,0.97944
2057.74805,0.98002
2055.81952,0.98044
2053.89098,0.98076
2051.96244,0.98108
2050.03391,0.98152
2048.10537,0.98210
2046.17683,0.98261
2044.24830,0.98298
2042.31976,0.98349
2040.39123,0.98393
2038.46269,0.98370
2036.53415,0.98322
2034.60562,0.98316
2032.67708,0.98349
2030.74855,0.98408
2028.82001,0.98453
2026.89147,0.98456
2024.96294,0.98451
2023.03440,0.98456
2021.10587,0.98477
2019.17733,0.98547
2017.24879,0.98660
2015.32026,0.98756
2013.39172,0.98811
2011.46318,0.98859
2009.53465,0.98942
2007.60611,0.99038
2005.67758,0.99100
2003.74904,0.99124
2001.82050,0.99121
1999.89197,0.99100
1997.96343,0.99065
1996.03490,0.99034
1994.10636,0.99032
1992.17782,0.99052
1990.24929,0.99030
1988.32075,0.98981
1986.39221,0.98971
1984.46368,0.98994
1982.53514,0.99007
1980.60661,0.99007
1978.67807,0.99016
1976.74953,0.99018
1974.82100,0.99008
1972.89246,0.98991
1970.96393,0.98964
1969.03539,0.98939
1967.10685,0.98878
1965.17832,0.98785
1963.24978,0.98719
1961.32125,0.98691
1959.39271,0.98676
1957.46417,0.98645
1955.53564,0.98588
1953.60710,0.98518
1951.67856,0.98463
1949.75003,0.98420
1947.82149,0.98373
1945.89296,0.98324
1943.96442,0.98258
1942.03588,0.98132
1940.10735,0.97986
1938.17881,0.97933
1936.25028,0.97992
1934.32174,0.98099
1932.39320,0.98203
1930.46467,0.98296
1928.53613,0.98373
1926.60759,0.98422
1924.67906,0.98459
1922.75052,0.98486
1920.82199,0.98496
1918.89345,0.98502
1916.96491,0.98506
1915.03638,0.98502
1913.10784,0.98485
1911.17931,0.98469
1909.25077,0.98478
1907.32223,0.98505
1905.39370,0.98517
1903.46516,0.98508
1901.53663,0.98505
1899.60809,0.98507
1897.67955,0.98509
1895.75102,0.98504
1893.82248,0.98486
1891.89394,0.98467
1889.96541,0.98450
1888.03687,0.98436
1886.10834,0.98419
1884.17980,0.98410
1882.25126,0.98409
1880.32273,0.98401
1878.39419,0.98374
1876.46566,0.98343
1874.53712,0.98323
1872.60858,0.98291
1870.68005,0.98238
1868.75151,0.98167
1866.82297,0.98093
1864.89444,0.98032
1862.96590,0.97987
1861.03737,0.97980
1859.10883,0.98020
1857.18029,0.98081
1855.25176,0.98132
1853.32322,0.98175
1851.39469,0.98213
1849.46615,0.98250
1847.53761,0.98293
1845.60908,0.98336
1843.68054,0.98368
1841.75200,0.98377
1839.82347,0.98384
1837.89493,0.98395
1835.96640,0.98404
1834.03786,0.98410
1832.10932,0.98416
1830.18079,0.98428
1828.25225,0.98442
1826.32372,0.98452
1824.39518,0.98444
1822.46664,0.98416
1820.53811,0.98398
1818.60957,0.98388
1816.68104,0.98367
1814.75250,0.98331
1812.82396,0.98294
1810.89543,0.98264
1808.96689,0.98235
1807.03835,0.98208
1805.10982,0.98189
1803.18128,0.98173
1801.25275,0.98150
1799.32421,0.98118
1797.39567,0.98082
1795.46714,0.98049
1793.53860,0.98015
1791.61007,0.97960
1789.68153,0.97871
1787.75299,0.97757
1785.82446,0.97635
1783.89592,0.97548
1781.96738,0.97533
1780.03885,0.97571
1778.11031,0.97619
1776.18178,0.97656
1774.25324,0.97687
1772.32470,0.97716
1770.39617,0.97728
1768.46763,0.97721
1766.53910,0.97707
1764.61056,0.97695
1762.68202,0.97687
1760.75349,0.97666
1758.82495,0.97624
1756.89642,0.97562
1754.96788,0.97490
1753.03934,0.97417
1751.11081,0.97340
1749.18227,0.97263
1747.25373,0.97193
1745.32520,0.97128
1743.39666,0.97081
1741.46813,0.97056
1739.53959,0.97036
1737.61105,0.97016
1735.68252,0.96992
1733.75398,0.96943
1731.82545,0.96862
1729.89691,0.96797
1727.96837,0.96775
1726.03984,0.96796
1724.11130,0.96832
1722.18276,0.96860
1720.25423,0.96877
1718.32569,0.96877
1716.39716,0.96858
1714.46862,0.96847
1712.54008,0.96857
1710.61155,0.96877
1708.68301,0.96898
1706.75448,0.96931
1704.82594,0.96977
1702.89740,0.97016
1700.96887,0.97052
1699.04033,0.97077
1697.11180,0.97069
1695.18326,0.97038
1693.25472,0.97010
1691.32619,0.96998
1689.39765,0.97020
1687.46911,0.97062
1685.54058,0.97118
1683.61204,0.97211
1681.68351,0.97261
1679.75497,0.97268
1677.82643,0.97258
1675.89790,0.97242
1673.96936,0.97209
1672.04083,0.97163
1670.11229,0.97111
1668.18375,0.97062
1666.25522,0.97017
1664.32668,0.96942
1662.39814,0.96842
1660.46961,0.96740
1658.54107,0.96634
1656.61254,0.96503
1654.68400,0.96231
1652.75546,0.95450
1650.82693,0.94744
1648.89839,0.94102
1646.96986,0.92576
1645.04132,0.90664
1643.11278,0.89527
1641.18425,0.88976
1639.25571,0.89049
1637.32718,0.89929
1635.39864,0.91705
1633.47010,0.92899
1631.54157,0.93280
1629.61303,0.93364
1627.68449,0.93197
1625.75596,0.92797
1623.82742,0.92188
1621.89889,0.91633
1619.97035,0.91396
1618.04181,0.91157
1616.11328,0.90261
1614.18474,0.88693
1612.25621,0.86830
1610.32767,0.84891
1608.39913,0.83382
1606.47060,0.81720
1604.54206,0.78063
1602.61352,0.72261
1600.68499,0.68059
1598.75645,0.68523
1596.82792,0.71707
1594.89938,0.73968
1592.97084,0.73781
1591.04231,0.72550
1589.11377,0.72092
1587.18524,0.72487
1585.25670,0.72534
1583.32816,0.71914
1581.39963,0.71829
1579.47109,0.73235
1577.54256,0.76817
1575.61402,0.82615
1573.68548,0.86475
1571.75695,0.88245
1569.82841,0.89761
1567.89987,0.90962
1565.97134,0.91550
1564.04280,0.91961
1562.11427,0.92279
1560.18573,0.92594
1558.25719,0.93127
1556.32866,0.93285
1554.40012,0.93285
1552.47159,0.93225
1550.54305,0.93097
1548.61451,0.92900
1546.68598,0.92685
1544.75744,0.92429
1542.82890,0.91980
1540.90037,0.91011
1538.97183,0.89383
1537.04330,0.88407
1535.11476,0.87432
1533.18622,0.85730
1531.25769,0.83844
1529.32915,0.81911
1527.40062,0.78530
1525.47208,0.73096
1523.54354,0.66450
1521.61501,0.57266
1519.68647,0.49386
1517.75793,0.46904
1515.82940,0.48633
1513.90086,0.53253
1511.97233,0.59323
1510.04379,0.65461
1508.11525,0.71187
1506.18672,0.75633
1504.25818,0.75768
1502.32965,0.74129
1500.40111,0.71228
1498.47257,0.66191
1496.54404,0.58170
1494.61550,0.50217
1492.68697,0.44239
1490.75843,0.38286
1488.82989,0.32235
1486.90136,0.29378
1484.97282,0.29343
1483.04428,0.30954
1481.11575,0.34003
1479.18721,0.37838
1477.25868,0.42164
1475.33014,0.47131
1473.40160,0.52473
1471.47307,0.56611
1469.54453,0.58242
1467.61600,0.58784
1465.68746,0.58999
1463.75892,0.58808
1461.83039,0.58443
1459.90185,0.58396
1457.97331,0.59531
1456.04478,0.61458
1454.11624,0.61995
1452.18771,0.62048
1450.25917,0.62196
1448.33063,0.62185
1446.40210,0.62350
1444.47356,0.63897
1442.54503,0.66634
1440.61649,0.68943
1438.68795,0.69490
1436.75942,0.67692
1434.83088,0.64762
1432.90235,0.62463
1430.97381,0.60168
1429.04527,0.57676
1427.11674,0.56046
1425.18820,0.55852
1423.25966,0.57062
1421.33113,0.59132
1419.40259,0.62116
1417.47406,0.65481
1415.54552,0.67359
1413.61698,0.67812
1411.68845,0.67131
1409.75991,0.65854
1407.83138,0.65133
1405.90284,0.66098
1403.97430,0.68692
1402.04577,0.71072
1400.11723,0.72433
1398.18869,0.72909
1396.26016,0.72699
1394.33162,0.72263
1392.40309,0.72051
1390.47455,0.72083
1388.54601,0.72245
1386.61748,0.72598
1384.68894,0.73172
1382.76041,0.73983
1380.83187,0.75046
1378.90333,0.76298
1376.97480,0.77661
1375.04626,0.79257
1373.11773,0.81002
1371.18919,0.82389
1369.26065,0.83481
1367.33212,0.84387
1365.40358,0.85055
1363.47504,0.85632
1361.54651,0.86147
1359.61797,0.86435
1357.68944,0.86448
1355.76090,0.86220
1353.83236,0.85763
1351.90383,0.85108
1349.97529,0.84150
1348.04676,0.82703
1346.11822,0.80666
1344.18968,0.78043
1342.26115,0.74852
1340.33261,0.70626
1338.40407,0.65329
1336.47554,0.60286
1334.54700,0.56188
1332.61847,0.52847
1330.68993,0.49907
1328.76139,0.47069
1326.83286,0.44191
1324.90432,0.41514
1322.97579,0.39459
1321.04725,0.37678
1319.11871,0.35412
1317.19018,0.33370
1315.26164,0.33475
1313.33311,0.36242
1311.40457,0.40525
1309.47603,0.45465
1307.54750,0.50677
1305.61896,0.55369
1303.69042,0.59575
1301.76189,0.64089
1299.83335,0.68642
1297.90482,0.72120
1295.97628,0.73682
1294.04774,0.72932
1292.11921,0.70157
1290.19067,0.66832
1288.26214,0.65246
1286.33360,0.66675
1284.40506,0.70036
1282.47653,0.73433
1280.54799,0.76205
1278.61945,0.78691
1276.69092,0.80992
1274.76238,0.82822
1272.83385,0.83986
1270.90531,0.84402
1268.97677,0.83961
1267.04824,0.82444
1265.11970,0.79442
1263.19117,0.74626
1261.26263,0.68532
1259.33409,0.62988
1257.40556,0.59610
1255.47702,0.58053
1253.54849,0.56869
1251.61995,0.55023
1249.69141,0.52619
1247.76288,0.50804
1245.83434,0.50578
1243.90580,0.51724
1241.97727,0.53289
1240.04873,0.54845
1238.12020,0.56955
1236.19166,0.60394
1234.26312,0.65093
1232.33459,0.70122
1230.40605,0.74573
1228.47752,0.78105
1226.54898,0.80807
1224.62044,0.82881
1222.69191,0.84484
1220.76337,0.85734
1218.83483,0.86734
1216.90630,0.87554
1214.97776,0.88241
1213.04923,0.88824
1211.12069,0.89313
1209.19215,0.89714
1207.26362,0.90041
1205.33508,0.90285
1203.40655,0.90428
1201.47801,0.90475
1199.54947,0.90418
1197.62094,0.90201
1195.69240,0.89754
1193.76387,0.89077
1191.83533,0.88285
1189.90679,0.87534
1187.97826,0.86984
1186.04972,0.86827
1184.12118,0.87066
1182.19265,0.87296
1180.26411,0.86972
1178.33558,0.85769
1176.40704,0.83508
1174.47850,0.79986
1172.54997,0.75264
1170.62143,0.70087
1168.69290,0.65272
1166.76436,0.60916
1164.83582,0.56851
1162.90729,0.53005
1160.97875,0.49043
1159.05021,0.44608
1157.12168,0.39702
1155.19314,0.34786
1153.26461,0.31019
1151.33607,0.30044
1149.40753,0.32445
1147.47900,0.36278
1145.55046,0.38472
1143.62193,0.38353
1141.69339,0.38292
1139.76485,0.40349
1137.83632,0.44230
1135.90778,0.48672
1133.97924,0.52929
1132.05071,0.56827
1130.12217,0.60459
1128.19364,0.64020
1126.26510,0.67550
1124.33656,0.70861
1122.40803,0.73777
1120.47949,0.76247
1118.55096,0.78282
1116.62242,0.79925
1114.69388,0.81233
1112.76535,0.82264
1110.83681,0.83059
1108.90828,0.83646
1106.97974,0.84051
1105.05120,0.84256
1103.12267,0.84165
1101.19413,0.83614
1099.26559,0.82368
1097.33706,0.80320
1095.40852,0.77732
1093.47999,0.74481
1091.55145,0.69649
1089.62291,0.64011
1087.69438,0.61151
1085.76584,0.63293
1083.83731,0.68616
1081.90877,0.73945
1079.98023,0.77403
1078.05170,0.78537
1076.12316,0.77547
1074.19462,0.74505
1072.26609,0.69151
1070.33755,0.61408
1068.40902,0.52407
1066.48048,0.44816
1064.55194,0.41456
1062.62341,0.43523
1060.69487,0.49991
1058.76634,0.58186
1056.83780,0.65351
1054.90926,0.70113
1052.98073,0.72510
1051.05219,0.73256
1049.12366,0.73110
1047.19512,0.72449
1045.26658,0.71325
1043.33805,0.69523
1041.40951,0.66320
1039.48097,0.61342
1037.55244,0.56314
1035.62390,0.54338
1033.69537,0.56581
1031.76683,0.61366
1029.83829,0.66536
1027.90976,0.71007
1025.98122,0.74523
1024.05269,0.77139
1022.12415,0.78936
1020.19561,0.79962
1018.26708,0.80263
1016.33854,0.79812
1014.41000,0.78413
1012.48147,0.75671
1010.55293,0.71041
1008.62440,0.64036
1006.69586,0.54744
1004.76732,0.44282
1002.83879,0.34453
1000.91025,0.26844
998.98172,0.22234
997.05318,0.20496
995.12464,0.21195
993.19611,0.24269
991.26757,0.29539
989.33904,0.36001
987.41050,0.42199
985.48196,0.46957
983.55343,0.49726
981.62489,0.50613
979.69635,0.50129
977.76782,0.48693
975.83928,0.46366
973.91075,0.43360
971.98221,0.40423
970.05367,0.38497
968.12514,0.38527
966.19660,0.41148
964.26807,0.45949
962.33953,0.51600
960.41099,0.56909
958.48246,0.61418
956.55392,0.65144
954.62538,0.68197
952.69685,0.70690
950.76831,0.72741
948.83978,0.74434
946.91124,0.75819
944.98270,0.76933
943.05417,0.77781
941.12563,0.78259
939.19710,0.78086
937.26856,0.76723
935.34002,0.73628
933.41149,0.69292
931.48295,0.65941
929.55442,0.65690
927.62588,0.68079
925.69734,0.70815
923.76881,0.72034
921.84027,0.70923
919.91173,0.67431
917.98320,0.62725
916.05466,0.59513
914.12613,0.60015
912.19759,0.63667
910.26905,0.68154
908.34052,0.71734
906.41198,0.73824
904.48345,0.74516
902.55491,0.74110
900.62637,0.72883
898.69784,0.71061
896.76930,0.69033
894.84076,0.67406
892.91223,0.66395
890.98369,0.65643
889.05516,0.64957
887.12662,0.64398
885.19808,0.63935
883.26955,0.63554
881.34101,0.63292
879.41248,0.63176
877.48394,0.63221
875.55540,0.63394
873.62687,0.63576
871.69833,0.63415
869.76980,0.62081
867.84126,0.59217
865.91272,0.56763
863.98419,0.57168
862.05565,0.59821
860.12711,0.62537
858.19858,0.64645
856.27004,0.66521
854.34151,0.68392
852.41297,0.70269
850.48443,0.72079
848.55590,0.73739
846.62736,0.75202
844.69883,0.76459
842.77029,0.77551
840.84175,0.78534
838.91322,0.79414
836.98468,0.80188
835.05614,0.80869
833.12761,0.81474
831.19907,0.82009
829.27054,0.82483
827.34200,0.82906
825.41346,0.83276
823.48493,0.83597
821.55639,0.83865
819.62786,0.84044
817.69932,0.84053
815.77078,0.83780
813.84225,0.83053
811.91371,0.81659
809.98517,0.79442
808.05664,0.76394
806.12810,0.72680
804.19957,0.68533
802.27103,0.63922
800.34249,0.58643
798.41396,0.54175
796.48542,0.53622
794.55689,0.57050
792.62835,0.60501
790.69981,0.60599
788.77128,0.56713
786.84274,0.50643
784.91421,0.46062
782.98567,0.45487
781.05713,0.47925
779.12860,0.51093
777.20006,0.53698
775.27152,0.54895
773.34299,0.53826
771.41445,0.50225
769.48592,0.45106
767.55738,0.40691
765.62884,0.39099
763.70031,0.40793
761.77177,0.44639
759.84324,0.49330
757.91470,0.54139
755.98616,0.58747
754.05763,0.63016
752.12909,0.66827
750.20055,0.69982
748.27202,0.72163
746.34348,0.73040
744.41495,0.72565
742.48641,0.71046
740.55787,0.68732
738.62934,0.65758
736.70080,0.62693
734.77227,0.60846
732.84373,0.61687
730.91519,0.65262
728.98666,0.69831
727.05812,0.73738
725.12959,0.76554
723.20105,0.78514
721.27251,0.79960
719.34398,0.81123
717.41544,0.82081
715.48690,0.82861
713.55837,0.83475
711.62983,0.83911
709.70130,0.84134
707.77276,0.83960
705.84422,0.82855
703.91569,0.79621
701.98715,0.73359
700.05862,0.65910
698.13008,0.60962
696.20154,0.59716
694.27301,0.60132
692.34447,0.59508
690.41593,0.56810
688.48740,0.54750
686.55886,0.56982
684.63033,0.62615
682.70179,0.68297
680.77325,0.72610
678.84472,0.75810
676.91618,0.78311
674.98765,0.80293
673.05911,0.81729
671.13057,0.82578
669.20204,0.82840
667.27350,0.82442
665.34497,0.82169
663.41643,0.82519
661.48789,0.83409
659.55936,0.84384
657.63082,0.85091
655.70228,0.85469
653.77375,0.85180
651.84521,0.82984
649.91668,0.76966
647.98814,0.68473
646.05960,0.64164
644.13107,0.67584
642.20253,0.74224
640.27400,0.78943
638.34546,0.81154
636.41692,0.82039
634.48839,0.82221
632.55985,0.81878
630.63131,0.81083
628.70278,0.79959
626.77424,0.78848
624.84571,0.78262
622.91717,0.78374
620.98863,0.78817
619.06010,0.79100
617.13156,0.78978
615.20303,0.78525
613.27449,0.78161
611.34595,0.78432
609.41742,0.79477
607.48888,0.80822
605.56035,0.81906
603.63181,0.82574
601.70327,0.82923
599.77474,0.83051
597.84620,0.83006
595.91766,0.82775
593.98913,0.82266
592.06059,0.81309
590.13206,0.79850
588.20352,0.78128
586.27498,0.76672
584.34645,0.76014
582.41791,0.76052
580.48938,0.76190
578.56084,0.76041
576.63230,0.75519
574.70377,0.74617
572.77523,0.73378
570.84669,0.71820
568.91816,0.70036
566.98962,0.68349
565.06109,0.67047
563.13255,0.66121
561.20401,0.65371
559.27548,0.64662
557.34694,0.64023
555.41841,0.63580
553.48987,0.63451
551.56133,0.63636
549.63280,0.64015
547.70426,0.64384
545.77573,0.64608
543.84719,0.64625
541.91865,0.64294
539.99012,0.63393
538.06158,0.61659
536.13304,0.58857
534.20451,0.54991
532.27597,0.50076
530.34744,0.44030
528.41890,0.37532
526.49036,0.32401
524.56183,0.30710
522.63329,0.32201
520.70476,0.35239
518.77622,0.39477
516.84768,0.45029
514.91915,0.50745
512.99061,0.55484
511.06207,0.58800
509.13354,0.59968
507.20500,0.58091
505.27647,0.53254
503.34793,0.46754
501.41939,0.40819
499.49086,0.38490
497.56232,0.40548
495.63379,0.45317
493.70525,0.50501
491.77671,0.54721
489.84818,0.57767
487.91964,0.59955
485.99110,0.61687
484.06257,0.63150
482.13403,0.64357
480.20550,0.65338
478.27696,0.66061
476.34842,0.66482
474.41989,0.66551
472.49135,0.65981
470.56282,0.64582
468.63428,0.62554
466.70574,0.60465
464.77721,0.59151
462.84867,0.58613
460.92014,0.58240
458.99160,0.57828
457.06306,0.57660
455.13453,0.57838
453.20599,0.58306
451.27745,0.59262
449.34892,0.60687
447.42038,0.62340
445.49185,0.63859
443.56331,0.65027
441.63477,0.65975
439.70624,0.66724
437.77770,0.67279
435.84917,0.67763
433.92063,0.68247
431.99209,0.68670
430.06356,0.68984
428.13502,0.69263
426.20648,0.69593
424.27795,0.69932
422.34941,0.70222
420.42088,0.70550
418.49234,0.70953
416.56380,0.71097
414.63527,0.71018
412.70673,0.70872
410.77820,0.70671
408.84966,0.70599
406.92112,0.70622
404.99259,0.70397
403.06405,0.70010
401.13552,0.69652
399.20698,0.69270
