3997.85540,0.94608
3995.92686,0.94607
3993.99833,0.94598
3992.06979,0.94596
3990.14125,0.94607
3988.21272,0.94617
3986.28418,0.94619
3984.35565,0.94614
3982.42711,0.94609
3980.49857,0.94608
3978.57004,0.94607
3976.64150,0.94593
3974.71297,0.94574
3972.78443,0.94566
3970.85589,0.94563
3968.92736,0.94555
3966.99882,0.94553
3965.07029,0.94557
3963.14175,0.94554
3961.21321,0.94549
3959.28468,0.94556
3957.35614,0.94565
3955.42760,0.94563
3953.49907,0.94549
3951.57053,0.94524
3949.64200,0.94502
3947.71346,0.94508
3945.78492,0.94524
3943.85639,0.94516
3941.92785,0.94514
3939.99932,0.94544
3938.07078,0.94576
3936.14224,0.94583
3934.21371,0.94556
3932.28517,0.94510
3930.35663,0.94496
3928.42810,0.94525
3926.49956,0.94543
3924.57103,0.94530
3922.64249,0.94536
3920.71395,0.94558
3918.78542,0.94554
3916.85688,0.94559
3914.92835,0.94611
3912.99981,0.94661
3911.07127,0.94677
3909.14274,0.94658
3907.21420,0.94585
3905.28566,0.94439
3903.35713,0.94304
3901.42859,0.94295
3899.50006,0.94366
3897.57152,0.94460
3895.64298,0.94523
3893.71445,0.94513
3891.78591,0.94476
3889.85738,0.94514
3887.92884,0.94552
3886.00030,0.94503
3884.07177,0.94432
3882.14323,0.94413
3880.21470,0.94441
3878.28616,0.94519
3876.35762,0.94554
3874.42909,0.94494
3872.50055,0.94398
3870.57201,0.94343
3868.64348,0.94370
3866.71494,0.94399
3864.78641,0.94355
3862.85787,0.94359
3860.92933,0.94458
3859.00080,0.94502
3857.07226,0.94439
3855.14373,0.94292
3853.21519,0.94165
3851.28665,0.94284
3849.35812,0.94458
3847.42958,0.94559
3845.50104,0.94573
3843.57251,0.94510
3841.64397,0.94399
3839.71544,0.94274
3837.78690,0.94231
3835.85836,0.94320
3833.92983,0.94415
3832.00129,0.94471
3830.07276,0.94511
3828.14422,0.94524
3826.21568,0.94506
3824.28715,0.94469
3822.35861,0.94369
3820.43008,0.94252
3818.50154,0.94271
3816.57300,0.94348
3814.64447,0.94470
3812.71593,0.94598
3810.78739,0.94658
3808.85886,0.94620
3806.93032,0.94524
3805.00179,0.94485
3803.07325,0.94446
3801.14471,0.94376
3799.21618,0.94413
3797.28764,0.94513
3795.35911,0.94621
3793.43057,0.94710
3791.50203,0.94749
3789.57350,0.94740
3787.64496,0.94704
3785.71642,0.94667
3783.78789,0.94669
3781.85935,0.94687
3779.93082,0.94675
3778.00228,0.94688
3776.07374,0.94751
3774.14521,0.94788
3772.21667,0.94749
3770.28814,0.94654
3768.35960,0.94609
3766.43106,0.94634
3764.50253,0.94671
3762.57399,0.94680
3760.64546,0.94625
3758.71692,0.94555
3756.78838,0.94559
3754.85985,0.94551
3752.93131,0.94422
3751.00277,0.94193
3749.07424,0.94152
3747.14570,0.94236
3745.21717,0.94279
3743.28863,0.94300
3741.36009,0.94310
3739.43156,0.94266
3737.50302,0.94132
3735.57449,0.93948
3733.64595,0.93899
3731.71741,0.93990
3729.78888,0.94067
3727.86034,0.94082
3725.93180,0.94071
3724.00327,0.94102
3722.07473,0.94187
3720.14620,0.94320
3718.21766,0.94474
3716.28912,0.94578
3714.36059,0.94559
3712.43205,0.94365
3710.50352,0.94184
3708.57498,0.94261
3706.64644,0.94379
3704.71791,0.94421
3702.78937,0.94420
3700.86084,0.94449
3698.93230,0.94501
3697.00376,0.94526
3695.07523,0.94510
3693.14669,0.94450
3691.21815,0.94344
3689.28962,0.94298
3687.36108,0.94421
3685.43255,0.94570
3683.50401,0.94659
3681.57547,0.94655
3679.64694,0.94553
3677.71840,0.94400
3675.78987,0.94288
3673.86133,0.94335
3671.93279,0.94367
3670.00426,0.94343
3668.07572,0.94459
3666.14718,0.94626
3664.21865,0.94710
3662.29011,0.94719
3660.36158,0.94695
3658.43304,0.94646
3656.50450,0.94571
3654.57597,0.94533
3652.64743,0.94495
3650.71890,0.94323
3648.79036,0.94105
3646.86182,0.94237
3644.93329,0.94440
3643.00475,0.94546
3641.07622,0.94570
3639.14768,0.94551
3637.21914,0.94511
3635.29061,0.94453
3633.36207,0.94382
3631.43353,0.94288
3629.50500,0.94157
3627.57646,0.94146
3625.64793,0.94272
3623.71939,0.94355
3621.79085,0.94358
3619.86232,0.94313
3617.93378,0.94329
3616.00525,0.94392
3614.07671,0.94421
3612.14817,0.94439
3610.21964,0.94440
3608.29110,0.94398
3606.36256,0.94393
3604.43403,0.94427
3602.50549,0.94417
3600.57696,0.94365
3598.64842,0.94347
3596.71988,0.94343
3594.79135,0.94326
3592.86281,0.94362
3590.93428,0.94416
3589.00574,0.94387
3587.07720,0.94336
3585.14867,0.94415
3583.22013,0.94521
3581.29160,0.94570
3579.36306,0.94575
3577.43452,0.94566
3575.50599,0.94570
3573.57745,0.94585
3571.64891,0.94574
3569.72038,0.94491
3567.79184,0.94332
3565.86331,0.94258
3563.93477,0.94344
3562.00623,0.94433
3560.07770,0.94480
3558.14916,0.94503
3556.22063,0.94506
3554.29209,0.94485
3552.36355,0.94454
3550.43502,0.94435
3548.50648,0.94400
3546.57794,0.94329
3544.64941,0.94313
3542.72087,0.94386
3540.79234,0.94448
3538.86380,0.94452
3536.93526,0.94429
3535.00673,0.94423
3533.07819,0.94427
3531.14966,0.94402
3529.22112,0.94343
3527.29258,0.94293
3525.36405,0.94274
3523.43551,0.94282
3521.50697,0.94325
3519.57844,0.94370
3517.64990,0.94382
3515.72137,0.94379
3513.79283,0.94374
3511.86429,0.94356
3509.93576,0.94330
3508.00722,0.94314
3506.07869,0.94289
3504.15015,0.94241
3502.22161,0.94225
3500.29308,0.94253
3498.36454,0.94270
3496.43601,0.94268
3494.50747,0.94268
3492.57893,0.94271
3490.65040,0.94261
3488.72186,0.94238
3486.79332,0.94216
3484.86479,0.94195
3482.93625,0.94167
3481.00772,0.94150
3479.07918,0.94163
3477.15064,0.94181
3475.22211,0.94181
3473.29357,0.94172
3471.36504,0.94170
3469.43650,0.94162
3467.50796,0.94138
3465.57943,0.94109
3463.65089,0.94087
3461.72235,0.94080
3459.79382,0.94087
3457.86528,0.94089
3455.93675,0.94084
3454.00821,0.94078
3452.07967,0.94068
3450.15114,0.94041
3448.22260,0.93994
3446.29407,0.93968
3444.36553,0.93975
3442.43699,0.93985
3440.50846,0.93993
3438.57992,0.93998
3436.65139,0.93988
3434.72285,0.93975
3432.79431,0.93967
3430.86578,0.93959
3428.93724,0.93947
3427.00870,0.93929
3425.08017,0.93911
3423.15163,0.93889
3421.22310,0.93866
3419.29456,0.93866
3417.36602,0.93877
3415.43749,0.93872
3413.50895,0.93861
3411.58042,0.93858
3409.65188,0.93860
3407.72334,0.93858
3405.79481,0.93851
3403.86627,0.93839
3401.93773,0.93820
3400.00920,0.93794
3398.08066,0.93777
3396.15213,0.93777
3394.22359,0.93778
3392.29505,0.93775
3390.36652,0.93786
3388.43798,0.93798
3386.50945,0.93790
3384.58091,0.93783
3382.65237,0.93793
3380.72384,0.93806
3378.79530,0.93808
3376.86677,0.93807
3374.93823,0.93811
3373.00969,0.93822
3371.08116,0.93837
3369.15262,0.93849
3367.22408,0.93847
3365.29555,0.93834
3363.36701,0.93829
3361.43848,0.93835
3359.50994,0.93844
3357.58140,0.93853
3355.65287,0.93868
3353.72433,0.93884
3351.79580,0.93888
3349.86726,0.93897
3347.93872,0.93919
3346.01019,0.93940
3344.08165,0.93959
3342.15311,0.93977
3340.22458,0.93988
3338.29604,0.93991
3336.36751,0.93992
3334.43897,0.94005
3332.51043,0.94028
3330.58190,0.94047
3328.65336,0.94060
3326.72483,0.94072
3324.79629,0.94088
3322.86775,0.94109
3320.93922,0.94130
3319.01068,0.94149
3317.08215,0.94163
3315.15361,0.94162
3313.22507,0.94160
3311.29654,0.94172
3309.36800,0.94189
3307.43946,0.94204
3305.51093,0.94220
3303.58239,0.94235
3301.65386,0.94243
3299.72532,0.94247
3297.79678,0.94255
3295.86825,0.94270
3293.93971,0.94281
3292.01118,0.94286
3290.08264,0.94298
3288.15410,0.94316
3286.22557,0.94331
3284.29703,0.94344
3282.36849,0.94357
3280.43996,0.94362
3278.51142,0.94359
3276.58289,0.94360
3274.65435,0.94365
3272.72581,0.94374
3270.79728,0.94389
3268.86874,0.94402
3266.94021,0.94405
3265.01167,0.94404
3263.08313,0.94402
3261.15460,0.94398
3259.22606,0.94404
3257.29753,0.94424
3255.36899,0.94439
3253.44045,0.94443
3251.51192,0.94452
3249.58338,0.94472
3247.65484,0.94491
3245.72631,0.94501
3243.79777,0.94508
3241.86924,0.94516
3239.94070,0.94526
3238.01216,0.94540
3236.08363,0.94554
3234.15509,0.94561
3232.22656,0.94565
3230.29802,0.94573
3228.36948,0.94580
3226.44095,0.94582
3224.51241,0.94585
3222.58387,0.94590
3220.65534,0.94598
3218.72680,0.94614
3216.79827,0.94630
3214.86973,0.94637
3212.94119,0.94644
3211.01266,0.94657
3209.08412,0.94676
3207.15559,0.94699
3205.22705,0.94714
3203.29851,0.94719
3201.36998,0.94722
3199.44144,0.94725
3197.51290,0.94729
3195.58437,0.94735
3193.65583,0.94751
3191.72730,0.94775
3189.79876,0.94789
3187.87022,0.94790
3185.94169,0.94789
3184.01315,0.94799
3182.08462,0.94816
3180.15608,0.94826
3178.22754,0.94825
3176.29901,0.94828
3174.37047,0.94838
3172.44194,0.94847
3170.51340,0.94856
3168.58486,0.94864
3166.65633,0.94865
3164.72779,0.94865
3162.79925,0.94878
3160.87072,0.94909
3158.94218,0.94941
3157.01365,0.94964
3155.08511,0.94985
3153.15657,0.94998
3151.22804,0.94999
3149.29950,0.95002
3147.37097,0.95013
3145.44243,0.95026
3143.51389,0.95035
3141.58536,0.95044
3139.65682,0.95052
3137.72828,0.95057
3135.79975,0.95056
3133.87121,0.95055
3131.94268,0.95064
3130.01414,0.95075
3128.08560,0.95078
3126.15707,0.95073
3124.22853,0.95075
3122.30000,0.95091
3120.37146,0.95108
3118.44292,0.95111
3116.51439,0.95107
3114.58585,0.95106
3112.65732,0.95108
3110.72878,0.95115
3108.80024,0.95124
3106.87171,0.95132
3104.94317,0.95135
3103.01463,0.95133
3101.08610,0.95143
3099.15756,0.95170
3097.22903,0.95189
3095.30049,0.95189
3093.37195,0.95183
3091.44342,0.95180
3089.51488,0.95176
3087.58635,0.95173
3085.65781,0.95178
3083.72927,0.95187
3081.80074,0.95180
3079.87220,0.95161
3077.94366,0.95151
3076.01513,0.95157
3074.08659,0.95164
3072.15806,0.95162
3070.22952,0.95150
3068.30098,0.95131
3066.37245,0.95114
3064.44391,0.95105
3062.51538,0.95104
3060.58684,0.95108
3058.65830,0.95111
3056.72977,0.95113
3054.80123,0.95124
3052.87270,0.95143
3050.94416,0.95161
3049.01562,0.95178
3047.08709,0.95200
3045.15855,0.95216
3043.23001,0.95220
3041.30148,0.95218
3039.37294,0.95220
3037.44441,0.95224
3035.51587,0.95225
3033.58733,0.95220
3031.65880,0.95206
3029.73026,0.95189
3027.80173,0.95171
3025.87319,0.95142
3023.94465,0.95098
3022.01612,0.95053
3020.08758,0.95010
3018.15904,0.94965
3016.23051,0.94922
3014.30197,0.94870
3012.37344,0.94789
3010.44490,0.94673
3008.51636,0.94535
3006.58783,0.94385
3004.65929,0.94236
3002.73076,0.94098
3000.80222,0.93985
2998.87368,0.93892
2996.94515,0.93786
2995.01661,0.93669
2993.08808,0.93563
2991.15954,0.93447
2989.23100,0.93293
2987.30247,0.93105
2985.37393,0.92850
2983.44539,0.92498
2981.51686,0.92134
2979.58832,0.91847
2977.65979,0.91580
2975.73125,0.91234
2973.80271,0.90762
2971.87418,0.90192
2969.94564,0.89618
2968.01711,0.89073
2966.08857,0.88517
2964.16003,0.87952
2962.23150,0.87395
2960.30296,0.86861
2958.37442,0.86392
2956.44589,0.86037
2954.51735,0.85818
2952.58882,0.85718
2950.66028,0.85690
2948.73174,0.85666
2946.80321,0.85572
2944.87467,0.85338
2942.94614,0.84930
2941.01760,0.84361
2939.08906,0.83689
2937.16053,0.83000
2935.23199,0.82363
2933.30346,0.81818
2931.37492,0.81383
2929.44638,0.81049
2927.51785,0.80788
2925.58931,0.80567
2923.66077,0.80347
2921.73224,0.80077
2919.80370,0.79722
2917.87517,0.79263
2915.94663,0.78692
2914.01809,0.78028
2912.08956,0.77315
2910.16102,0.76610
2908.23249,0.75994
2906.30395,0.75560
2904.37541,0.75389
2902.44688,0.75511
2900.51834,0.75907
2898.58980,0.76510
2896.66127,0.77227
2894.73273,0.77968
2892.80420,0.78691
2890.87566,0.79399
2888.94712,0.80112
2887.01859,0.80840
2885.09005,0.81583
2883.16152,0.82330
2881.23298,0.83047
2879.30444,0.83678
2877.37591,0.84185
2875.44737,0.84578
2873.51883,0.84889
2871.59030,0.85155
2869.66176,0.85408
2867.73323,0.85633
2865.80469,0.85751
2863.87615,0.85677
2861.94762,0.85374
2860.01908,0.84848
2858.09055,0.84127
2856.16201,0.83284
2854.23347,0.82435
2852.30494,0.81737
2850.37640,0.81382
2848.44787,0.81543
2846.51933,0.82273
2844.59079,0.83456
2842.66226,0.84862
2840.73372,0.86238
2838.80518,0.87401
2836.87665,0.88283
2834.94811,0.88921
2833.01958,0.89401
2831.09104,0.89798
2829.16250,0.90160
2827.23397,0.90503
2825.30543,0.90818
2823.37690,0.91093
2821.44836,0.91329
2819.51982,0.91535
2817.59129,0.91716
2815.66275,0.91879
2813.73421,0.92032
2811.80568,0.92178
2809.87714,0.92305
2807.94861,0.92411
2806.02007,0.92511
2804.09153,0.92609
2802.16300,0.92696
2800.23446,0.92772
2798.30593,0.92842
2796.37739,0.92905
2794.44885,0.92965
2792.52032,0.93026
2790.59178,0.93093
2788.66325,0.93155
2786.73471,0.93207
2784.80617,0.93257
2782.87764,0.93307
2780.94910,0.93352
2779.02056,0.93397
2777.09203,0.93451
2775.16349,0.93509
2773.23496,0.93560
2771.30642,0.93600
2769.37788,0.93629
2767.44935,0.93652
2765.52081,0.93670
2763.59228,0.93686
2761.66374,0.93701
2759.73520,0.93714
2757.80667,0.93725
2755.87813,0.93735
2753.94959,0.93751
2752.02106,0.93777
2750.09252,0.93805
2748.16399,0.93829
2746.23545,0.93845
2744.30691,0.93853
2742.37838,0.93856
2740.44984,0.93860
2738.52131,0.93868
2736.59277,0.93880
2734.66423,0.93888
2732.73570,0.93896
2730.80716,0.93908
2728.87863,0.93932
2726.95009,0.93966
2725.02155,0.94002
2723.09302,0.94030
2721.16448,0.94048
2719.23594,0.94062
2717.30741,0.94077
2715.37887,0.94095
2713.45034,0.94112
2711.52180,0.94131
2709.59326,0.94152
2707.66473,0.94173
2705.73619,0.94190
2703.80766,0.94208
2701.87912,0.94230
2699.95058,0.94246
2698.02205,0.94247
2696.09351,0.94231
2694.16497,0.94199
2692.23644,0.94150
2690.30790,0.94094
2688.37937,0.94032
2686.45083,0.93960
2684.52229,0.93877
2682.59376,0.93790
2680.66522,0.93715
2678.73669,0.93686
2676.80815,0.93723
2674.87961,0.93804
2672.95108,0.93874
2671.02254,0.93906
2669.09401,0.93907
2667.16547,0.93891
2665.23693,0.93854
2663.30840,0.93797
2661.37986,0.93739
2659.45132,0.93719
2657.52279,0.93756
2655.59425,0.93833
2653.66572,0.93914
2651.73718,0.93976
2649.80864,0.94016
2647.88011,0.94039
2645.95157,0.94050
2644.02304,0.94050
2642.09450,0.94040
2640.16596,0.94031
2638.23743,0.94040
2636.30889,0.94074
2634.38035,0.94122
2632.45182,0.94165
2630.52328,0.94196
2628.59475,0.94217
2626.66621,0.94231
2624.73767,0.94233
2622.80914,0.94233
2620.88060,0.94242
2618.95207,0.94262
2617.02353,0.94289
2615.09499,0.94314
2613.16646,0.94335
2611.23792,0.94357
2609.30939,0.94381
2607.38085,0.94405
2605.45231,0.94421
2603.52378,0.94426
2601.59524,0.94432
2599.66670,0.94449
2597.73817,0.94470
2595.80963,0.94497
2593.88110,0.94532
2591.95256,0.94561
2590.02402,0.94577
2588.09549,0.94586
2586.16695,0.94594
2584.23842,0.94605
2582.30988,0.94617
2580.38134,0.94627
2578.45281,0.94643
2576.52427,0.94663
2574.59573,0.94672
2572.66720,0.94666
2570.73866,0.94666
2568.81013,0.94682
2566.88159,0.94705
2564.95305,0.94731
2563.02452,0.94753
2561.09598,0.94770
2559.16745,0.94784
2557.23891,0.94790
2555.31037,0.94789
2553.38184,0.94797
2551.45330,0.94812
2549.52476,0.94819
2547.59623,0.94821
2545.66769,0.94830
2543.73916,0.94840
2541.81062,0.94845
2539.88208,0.94851
2537.95355,0.94867
2536.02501,0.94888
2534.09648,0.94901
2532.16794,0.94903
2530.23940,0.94900
2528.31087,0.94900
2526.38233,0.94902
2524.45380,0.94903
2522.52526,0.94903
2520.59672,0.94900
2518.66819,0.94895
2516.73965,0.94902
2514.81111,0.94926
2512.88258,0.94949
2510.95404,0.94952
2509.02551,0.94945
2507.09697,0.94942
2505.16843,0.94940
2503.23990,0.94938
2501.31136,0.94945
2499.38283,0.94959
2497.45429,0.94976
2495.52575,0.94989
2493.59722,0.94996
2491.66868,0.94996
2489.74014,0.94994
2487.81161,0.95001
2485.88307,0.95015
2483.95454,0.95023
2482.02600,0.95028
2480.09746,0.95033
2478.16893,0.95032
2476.24039,0.95030
2474.31186,0.95035
2472.38332,0.95040
2470.45478,0.95042
2468.52625,0.95036
2466.59771,0.95024
2464.66918,0.95019
2462.74064,0.95025
2460.81210,0.95029
2458.88357,0.95019
2456.95503,0.95004
2455.02649,0.95007
2453.09796,0.95020
2451.16942,0.95024
2449.24089,0.95024
2447.31235,0.95027
2445.38381,0.95032
2443.45528,0.95044
2441.52674,0.95061
2439.59821,0.95080
2437.66967,0.95091
2435.74113,0.95090
2433.81260,0.95087
2431.88406,0.95083
2429.95552,0.95078
2428.02699,0.95077
2426.09845,0.95079
2424.16992,0.95088
2422.24138,0.95110
2420.31284,0.95134
2418.38431,0.95143
2416.45577,0.95141
2414.52724,0.95142
2412.59870,0.95154
2410.67016,0.95168
2408.74163,0.95183
2406.81309,0.95199
2404.88456,0.95212
2402.95602,0.95222
2401.02748,0.95230
2399.09895,0.95229
2397.17041,0.95220
2395.24187,0.95211
2393.31334,0.95208
2391.38480,0.95202
2389.45627,0.95173
2387.52773,0.95088
2385.59919,0.94909
2383.67066,0.94610
2381.74212,0.94202
2379.81359,0.93711
2377.88505,0.93144
2375.95651,0.92480
2374.02798,0.91705
2372.09944,0.90839
2370.17090,0.89928
2368.24237,0.89021
2366.31383,0.88169
2364.38530,0.87465
2362.45676,0.87000
2360.52822,0.86799
2358.59969,0.86924
2356.67115,0.87474
2354.74262,0.88375
2352.81408,0.89455
2350.88554,0.90405
2348.95701,0.90828
2347.02847,0.90558
2345.09994,0.89758
2343.17140,0.89081
2341.24286,0.88933
2339.31433,0.89053
2337.38579,0.89209
2335.45725,0.89368
2333.52872,0.89506
2331.60018,0.89607
2329.67165,0.89748
2327.74311,0.89966
2325.81457,0.90232
2323.88604,0.90555
2321.95750,0.90950
2320.02897,0.91387
2318.10043,0.91828
2316.17189,0.92211
2314.24336,0.92478
2312.31482,0.92664
2310.38628,0.92866
2308.45775,0.93139
2306.52921,0.93456
2304.60068,0.93735
2302.67214,0.93925
2300.74360,0.94066
2298.81507,0.94218
2296.88653,0.94367
2294.95800,0.94481
2293.02946,0.94567
2291.10092,0.94650
2289.17239,0.94754
2287.24385,0.94871
2285.31532,0.94969
2283.38678,0.95026
2281.45824,0.95049
2279.52971,0.95059
2277.60117,0.95074
2275.67263,0.95094
2273.74410,0.95111
2271.81556,0.95127
2269.88703,0.95152
2267.95849,0.95190
2266.02995,0.95237
2264.10142,0.95273
2262.17288,0.95269
2260.24435,0.95251
2258.31581,0.95276
2256.38727,0.95347
2254.45874,0.95424
2252.53020,0.95474
2250.60166,0.95494
2248.67313,0.95506
2246.74459,0.95521
2244.81606,0.95526
2242.88752,0.95531
2240.95898,0.95547
2239.03045,0.95568
2237.10191,0.95592
2235.17338,0.95622
2233.24484,0.95643
2231.31630,0.95645
2229.38777,0.95646
2227.45923,0.95663
2225.53070,0.95696
2223.60216,0.95731
2221.67362,0.95740
2219.74509,0.95731
2217.81655,0.95728
2215.88801,0.95735
2213.95948,0.95748
2212.03094,0.95755
2210.10241,0.95757
2208.17387,0.95776
2206.24533,0.95800
2204.31680,0.95804
2202.38826,0.95804
2200.45973,0.95827
2198.53119,0.95854
2196.60265,0.95864
2194.67412,0.95866
2192.74558,0.95849
2190.81704,0.95813
2188.88851,0.95815
2186.95997,0.95878
2185.03144,0.95953
2183.10290,0.95978
2181.17436,0.95932
2179.24583,0.95893
2177.31729,0.95920
2175.38876,0.95960
2173.46022,0.95974
2171.53168,0.95969
2169.60315,0.95941
2167.67461,0.95910
2165.74607,0.95898
2163.81754,0.95916
2161.88900,0.96039
2159.96047,0.96291
2158.03193,0.96493
2156.10339,0.96503
2154.17486,0.96391
2152.24632,0.96287
2150.31779,0.96246
2148.38925,0.96246
2146.46071,0.96243
2144.53218,0.96218
2142.60364,0.96185
2140.67511,0.96163
2138.74657,0.96160
2136.81803,0.96166
2134.88950,0.96151
2132.96096,0.96114
2131.03242,0.96074
2129.10389,0.96042
2127.17535,0.96018
2125.24682,0.95998
2123.31828,0.95976
2121.38974,0.95945
2119.46121,0.95909
2117.53267,0.95886
2115.60414,0.95879
2113.67560,0.95880
2111.74706,0.95896
2109.81853,0.95926
2107.88999,0.95951
2105.96145,0.95957
2104.03292,0.95943
2102.10438,0.95929
2100.17585,0.95930
2098.24731,0.95952
2096.31877,0.95979
2094.39024,0.95979
2092.46170,0.95962
2090.53317,0.95957
2088.60463,0.95953
2086.67609,0.95938
2084.74756,0.95929
2082.81902,0.95922
2080.89049,0.95909
2078.96195,0.95908
2077.03341,0.95933
2075.10488,0.95971
2073.17634,0.95999
2071.24780,0.95987
2069.31927,0.95954
2067.39073,0.95932
2065.46220,0.95936
2063.53366,0.95968
2061.60512,0.96002
2059.67659,0.96010
2057.74805,0.96005
2055.81952,0.96016
2053.89098,0.96020
2051.96244,0.96005
2050.03391,0.96032
2048.10537,0.96116
2046.17683,0.96185
2044.24830,0.96216
2042.31976,0.96229
2040.39123,0.96255
2038.46269,0.96320
2036.53415,0.96382
2034.60562,0.96406
2032.67708,0.96433
2030.74855,0.96482
2028.82001,0.96529
2026.89147,0.96560
2024.96294,0.96589
2023.03440,0.96631
2021.10587,0.96657
2019.17733,0.96633
2017.24879,0.96581
2015.32026,0.96559
2013.39172,0.96565
2011.46318,0.96556
2009.53465,0.96554
2007.60611,0.96584
2005.67758,0.96573
2003.74904,0.96487
2001.82050,0.96413
1999.89197,0.96377
1997.96343,0.96357
1996.03490,0.96368
1994.10636,0.96388
1992.17782,0.96372
1990.24929,0.96343
1988.32075,0.96339
1986.39221,0.96351
1984.46368,0.96333
1982.53514,0.96275
1980.60661,0.96264
1978.67807,0.96357
1976.74953,0.96486
1974.82100,0.96576
1972.89246,0.96621
1970.96393,0.96626
1969.03539,0.96589
1967.10685,0.96534
1965.17832,0.96513
1963.24978,0.96531
1961.32125,0.96550
1959.39271,0.96546
1957.46417,0.96520
1955.53564,0.96490
1953.60710,0.96471
1951.67856,0.96462
1949.75003,0.96451
1947.82149,0.96419
1945.89296,0.96385
1943.96442,0.96378
1942.03588,0.96376
1940.10735,0.96367
1938.17881,0.96359
1936.25028,0.96354
1934.32174,0.96355
1932.39320,0.96345
1930.46467,0.96310
1928.53613,0.96268
1926.60759,0.96238
1924.67906,0.96206
1922.75052,0.96180
1920.82199,0.96182
1918.89345,0.96175
1916.96491,0.96162
1915.03638,0.96179
1913.10784,0.96204
1911.17931,0.96204
1909.25077,0.96195
1907.32223,0.96208
1905.39370,0.96239
1903.46516,0.96263
1901.53663,0.96271
1899.60809,0.96266
1897.67955,0.96254
1895.75102,0.96238
1893.82248,0.96225
1891.89394,0.96203
1889.96541,0.96180
1888.03687,0.96200
1886.10834,0.96235
1884.17980,0.96241
1882.25126,0.96232
1880.32273,0.96230
1878.39419,0.96232
1876.46566,0.96231
1874.53712,0.96203
1872.60858,0.96136
1870.68005,0.96033
1868.75151,0.95961
1866.82297,0.96011
1864.89444,0.96110
1862.96590,0.96167
1861.03737,0.96179
1859.10883,0.96186
1857.18029,0.96219
1855.25176,0.96257
1853.32322,0.96275
1851.39469,0.96270
1849.46615,0.96244
1847.53761,0.96195
1845.60908,0.96141
1843.68054,0.96146
1841.75200,0.96227
1839.82347,0.96286
1837.89493,0.96287
1835.96640,0.96276
1834.03786,0.96271
1832.10932,0.96217
1830.18079,0.96124
1828.25225,0.96100
1826.32372,0.96139
1824.39518,0.96185
1822.46664,0.96232
1820.53811,0.96266
1818.60957,0.96282
1816.68104,0.96287
1814.75250,0.96267
1812.82396,0.96219
1810.89543,0.96180
1808.96689,0.96185
1807.03835,0.96207
1805.10982,0.96207
1803.18128,0.96171
1801.25275,0.96119
1799.32421,0.96101
1797.39567,0.96098
1795.46714,0.96068
1793.53860,0.96010
1791.61007,0.96003
1789.68153,0.96091
1787.75299,0.96164
1785.82446,0.96177
1783.89592,0.96156
1781.96738,0.96125
1780.03885,0.96111
1778.11031,0.96121
1776.18178,0.96104
1774.25324,0.96017
1772.32470,0.95918
1770.39617,0.95946
1768.46763,0.96042
1766.53910,0.96108
1764.61056,0.96110
1762.68202,0.96056
1760.75349,0.96009
1758.82495,0.95989
1756.89642,0.95967
1754.96788,0.95950
1753.03934,0.95890
1751.11081,0.95722
1749.18227,0.95541
1747.25373,0.95503
1745.32520,0.95531
1743.39666,0.95545
1741.46813,0.95534
1739.53959,0.95520
1737.61105,0.95511
1735.68252,0.95469
1733.75398,0.95433
1731.82545,0.95542
1729.89691,0.95701
1727.96837,0.95825
1726.03984,0.95883
1724.11130,0.95881
1722.18276,0.95846
1720.25423,0.95761
1718.32569,0.95555
1716.39716,0.95362
1714.46862,0.95438
1712.54008,0.95558
1710.61155,0.95603
1708.68301,0.95576
1706.75448,0.95497
1704.82594,0.95452
1702.89740,0.95464
1700.96887,0.95432
1699.04033,0.95359
1697.11180,0.95389
1695.18326,0.95544
1693.25472,0.95655
1691.32619,0.95638
1689.39765,0.95530
1687.46911,0.95404
1685.54058,0.95245
1683.61204,0.95090
1681.68351,0.95141
1679.75497,0.95247
1677.82643,0.95305
1675.89790,0.95300
1673.96936,0.95265
1672.04083,0.95223
1670.11229,0.95203
1668.18375,0.95310
1666.25522,0.95416
1664.32668,0.95411
1662.39814,0.95367
1660.46961,0.95387
1658.54107,0.95397
1656.61254,0.95324
1654.68400,0.95143
1652.75546,0.94937
1650.82693,0.94929
1648.89839,0.94877
1646.96986,0.94771
1645.04132,0.94819
1643.11278,0.94875
1641.18425,0.94812
1639.25571,0.94627
1637.32718,0.94270
1635.39864,0.93763
1633.47010,0.93510
1631.54157,0.93406
1629.61303,0.93300
1627.68449,0.93269
1625.75596,0.93356
1623.82742,0.93512
1621.89889,0.93687
1619.97035,0.93758
1618.04181,0.93683
1616.11328,0.93595
1614.18474,0.93673
1612.25621,0.93797
1610.32767,0.93922
1608.39913,0.94093
1606.47060,0.94299
1604.54206,0.94476
1602.61352,0.94611
1600.68499,0.94720
1598.75645,0.94769
1596.82792,0.94710
1594.89938,0.94519
1592.97084,0.94171
1591.04231,0.93619
1589.11377,0.92850
1587.18524,0.91974
1585.25670,0.91146
1583.32816,0.90569
1581.39963,0.90425
1579.47109,0.90665
1577.54256,0.91289
1575.61402,0.92418
1573.68548,0.93269
1571.75695,0.93622
1569.82841,0.93800
1567.89987,0.93827
1565.97134,0.93523
1564.04280,0.92879
1562.11427,0.92152
1560.18573,0.91243
1558.25719,0.89977
1556.32866,0.90194
1554.40012,0.91251
1552.47159,0.92356
1550.54305,0.93263
1548.61451,0.93911
1546.68598,0.94209
1544.75744,0.94223
1542.82890,0.94100
1540.90037,0.94118
1538.97183,0.94499
1537.04330,0.94727
1535.11476,0.94752
1533.18622,0.94722
1531.25769,0.94734
1529.32915,0.94710
1527.40062,0.94596
1525.47208,0.94456
1523.54354,0.94342
1521.61501,0.94253
1519.68647,0.94260
1517.75793,0.94213
1515.82940,0.94061
1513.90086,0.93828
1511.97233,0.93397
1510.04379,0.92660
1508.11525,0.90428
1506.18672,0.84770
1504.25818,0.81021
1502.32965,0.78516
1500.40111,0.75979
1498.47257,0.74318
1496.54404,0.75065
1494.61550,0.77067
1492.68697,0.78328
1490.75843,0.78221
1488.82989,0.76141
1486.90136,0.73891
1484.97282,0.73162
1483.04428,0.74026
1481.11575,0.76356
1479.18721,0.79154
1477.25868,0.81588
1475.33014,0.83615
1473.40160,0.85310
1471.47307,0.86446
1469.54453,0.86730
1467.61600,0.86542
1465.68746,0.86131
1463.75892,0.85723
1461.83039,0.85354
1459.90185,0.84615
1457.97331,0.82168
1456.04478,0.77985
1454.11624,0.75704
1452.18771,0.74382
1450.25917,0.73482
1448.33063,0.73478
1446.40210,0.74631
1444.47356,0.76379
1442.54503,0.78186
1440.61649,0.79630
1438.68795,0.80381
1436.75942,0.80238
1434.83088,0.79527
1432.90235,0.79128
1430.97381,0.79467
1429.04527,0.80783
1427.11674,0.82385
1425.18820,0.83667
1423.25966,0.84502
1421.33113,0.84838
1419.40259,0.84901
1417.47406,0.85024
1415.54552,0.85213
1413.61698,0.85255
1411.68845,0.85104
1409.75991,0.84937
1407.83138,0.85041
1405.90284,0.85695
1403.97430,0.86932
1402.04577,0.88192
1400.11723,0.89231
1398.18869,0.90078
1396.26016,0.90614
1394.33162,0.90898
1392.40309,0.91016
1390.47455,0.90969
1388.54601,0.90773
1386.61748,0.90538
1384.68894,0.90390
1382.76041,0.90209
1380.83187,0.89875
1378.90333,0.89473
1376.97480,0.89150
1375.04626,0.88989
1373.11773,0.89079
1371.18919,0.89383
1369.26065,0.89850
1367.33212,0.90453
1365.40358,0.91025
1363.47504,0.91437
1361.54651,0.91596
1359.61797,0.91457
1357.68944,0.91150
1355.76090,0.91014
1353.83236,0.91342
1351.90383,0.91848
1349.97529,0.91871
1348.04676,0.91050
1346.11822,0.89801
1344.18968,0.89126
1342.26115,0.89665
1340.33261,0.91238
1338.40407,0.92886
1336.47554,0.93737
1334.54700,0.93993
1332.61847,0.93935
1330.68993,0.93595
1328.76139,0.92961
1326.83286,0.92024
1324.90432,0.90787
1322.97579,0.89284
1321.04725,0.87588
1319.11871,0.85837
1317.19018,0.84346
1315.26164,0.83368
1313.33311,0.82867
1311.40457,0.82517
1309.47603,0.81750
1307.54750,0.80328
1305.61896,0.78662
1303.69042,0.77291
1301.76189,0.76486
1299.83335,0.76413
1297.90482,0.77069
1295.97628,0.78205
1294.04774,0.79494
1292.11921,0.80652
1290.19067,0.81483
1288.26214,0.81906
1286.33360,0.81895
1284.40506,0.81436
1282.47653,0.80587
1280.54799,0.79611
1278.61945,0.78915
1276.69092,0.78727
1274.76238,0.78969
1272.83385,0.79499
1270.90531,0.80307
1268.97677,0.81392
1267.04824,0.82642
1265.11970,0.83770
1263.19117,0.84521
1261.26263,0.84978
1259.33409,0.85360
1257.40556,0.85729
1255.47702,0.86042
1253.54849,0.86213
1251.61995,0.86101
1249.69141,0.85588
1247.76288,0.84765
1245.83434,0.84020
1243.90580,0.83826
1241.97727,0.84346
1240.04873,0.85288
1238.12020,0.86118
1236.19166,0.86296
1234.26312,0.85432
1232.33459,0.83464
1230.40605,0.80864
1228.47752,0.78573
1226.54898,0.77479
1224.62044,0.77914
1222.69191,0.79658
1220.76337,0.82198
1218.83483,0.84915
1216.90630,0.87276
1214.97776,0.89034
1213.04923,0.90219
1211.12069,0.90966
1209.19215,0.91431
1207.26362,0.91769
1205.33508,0.92075
1203.40655,0.92364
1201.47801,0.92601
1199.54947,0.92758
1197.62094,0.92829
1195.69240,0.92808
1193.76387,0.92670
1191.83533,0.92382
1189.90679,0.91946
1187.97826,0.91391
1186.04972,0.90769
1184.12118,0.90225
1182.19265,0.89906
1180.26411,0.89727
1178.33558,0.89386
1176.40704,0.88657
1174.47850,0.87522
1172.54997,0.86081
1170.62143,0.84529
1168.69290,0.83158
1166.76436,0.82210
1164.83582,0.81677
1162.90729,0.81342
1160.97875,0.80975
1159.05021,0.80426
1157.12168,0.79637
1155.19314,0.78704
1153.26461,0.77852
1151.33607,0.77235
1149.40753,0.76744
1147.47900,0.76131
1145.55046,0.75331
1143.62193,0.74496
1141.69339,0.73769
1139.76485,0.73203
1137.83632,0.72820
1135.90778,0.72589
1133.97924,0.72394
1132.05071,0.72115
1130.12217,0.71725
1128.19364,0.71318
1126.26510,0.71066
1124.33656,0.71123
1122.40803,0.71550
1120.47949,0.72257
1118.55096,0.72989
1116.62242,0.73414
1114.69388,0.73355
1112.76535,0.72959
1110.83681,0.72603
1108.90828,0.72593
1106.97974,0.73023
1105.05120,0.73875
1103.12267,0.75090
1101.19413,0.76537
1099.26559,0.77977
1097.33706,0.79111
1095.40852,0.79752
1093.47999,0.80025
1091.55145,0.80361
1089.62291,0.81152
1087.69438,0.82348
1085.76584,0.83451
1083.83731,0.83819
1081.90877,0.82906
1079.98023,0.80477
1078.05170,0.77040
1076.12316,0.74051
1074.19462,0.73171
1072.26609,0.74922
1070.33755,0.78287
1068.40902,0.81760
1066.48048,0.84450
1064.55194,0.86187
1062.62341,0.87122
1060.69487,0.87476
1058.76634,0.87447
1056.83780,0.87092
1054.90926,0.86267
1052.98073,0.84874
1051.05219,0.83162
1049.12366,0.81603
1047.19512,0.80487
1045.26658,0.79911
1043.33805,0.80005
1041.40951,0.80775
1039.48097,0.81938
1037.55244,0.83135
1035.62390,0.84033
1033.69537,0.84253
1031.76683,0.83486
1029.83829,0.81733
1027.90976,0.79478
1025.98122,0.77556
1024.05269,0.76684
1022.12415,0.76947
1020.19561,0.77624
1018.26708,0.77377
1016.33854,0.74908
1014.41000,0.70310
1012.48147,0.65793
1010.55293,0.63992
1008.62440,0.65608
1006.69586,0.69384
1004.76732,0.73749
1002.83879,0.77755
1000.91025,0.81032
998.98172,0.83530
997.05318,0.85361
995.12464,0.86699
993.19611,0.87699
991.26757,0.88474
989.33904,0.89077
987.41050,0.89516
985.48196,0.89793
983.55343,0.89896
981.62489,0.89763
979.69635,0.89275
977.76782,0.88268
975.83928,0.86706
973.91075,0.84971
971.98221,0.83733
970.05367,0.83366
968.12514,0.83779
966.19660,0.84752
964.26807,0.86076
962.33953,0.87456
960.41099,0.88605
958.48246,0.89412
956.55392,0.89936
954.62538,0.90300
952.69685,0.90603
950.76831,0.90878
948.83978,0.91097
946.91124,0.91195
944.98270,0.91049
943.05417,0.90479
941.12563,0.89435
939.19710,0.88286
937.26856,0.87664
935.34002,0.87823
933.41149,0.88390
931.48295,0.88687
929.55442,0.88102
927.62588,0.86570
925.69734,0.84833
923.76881,0.83868
921.84027,0.84017
919.91173,0.84797
917.98320,0.85448
916.05466,0.85538
914.12613,0.85027
912.19759,0.83960
910.26905,0.82378
908.34052,0.80446
906.41198,0.78455
904.48345,0.76676
902.55491,0.75289
900.62637,0.74356
898.69784,0.73829
896.76930,0.73663
894.84076,0.73871
892.91223,0.74466
890.98369,0.75424
889.05516,0.76690
887.12662,0.78138
885.19808,0.79582
883.26955,0.80867
881.34101,0.81948
879.41248,0.82903
877.48394,0.83831
875.55540,0.84735
873.62687,0.85580
871.69833,0.86362
869.76980,0.87050
867.84126,0.87555
865.91272,0.87792
863.98419,0.87749
862.05565,0.87534
860.12711,0.87319
858.19858,0.87204
856.27004,0.87233
854.34151,0.87489
852.41297,0.88041
850.48443,0.88803
848.55590,0.89595
846.62736,0.90288
844.69883,0.90833
842.77029,0.91230
840.84175,0.91506
838.91322,0.91681
836.98468,0.91734
835.05614,0.91614
833.12761,0.91266
831.19907,0.90644
829.27054,0.89777
827.34200,0.88813
825.41346,0.87957
823.48493,0.87309
821.55639,0.86785
819.62786,0.86298
817.69932,0.85911
815.77078,0.85757
813.84225,0.85848
811.91371,0.86064
809.98517,0.86292
808.05664,0.86484
806.12810,0.86668
804.19957,0.86923
802.27103,0.87320
800.34249,0.87878
798.41396,0.88568
796.48542,0.89287
794.55689,0.89848
792.62835,0.90082
790.69981,0.89906
788.77128,0.89313
786.84274,0.88400
784.91421,0.87186
782.98567,0.85313
781.05713,0.82570
779.12860,0.79902
777.20006,0.78804
775.27152,0.79550
773.34299,0.81073
771.41445,0.82501
769.48592,0.83768
767.55738,0.84876
765.62884,0.85526
763.70031,0.85571
761.77177,0.85125
759.84324,0.84422
757.91470,0.84038
755.98616,0.84509
754.05763,0.85515
752.12909,0.86307
750.20055,0.86669
748.27202,0.86906
746.34348,0.87286
744.41495,0.87791
742.48641,0.88239
740.55787,0.88481
738.62934,0.88473
736.70080,0.88268
734.77227,0.87951
732.84373,0.87610
730.91519,0.87328
728.98666,0.87138
727.05812,0.86963
725.12959,0.86614
723.20105,0.85858
721.27251,0.84534
719.34398,0.82718
717.41544,0.80725
715.48690,0.78959
713.55837,0.77880
711.62983,0.77614
709.70130,0.77876
707.77276,0.78633
705.84422,0.80060
703.91569,0.81936
701.98715,0.83689
700.05862,0.84990
698.13008,0.85840
696.20154,0.86279
694.27301,0.86295
692.34447,0.85955
690.41593,0.85562
688.48740,0.85560
686.55886,0.86122
684.63033,0.86966
682.70179,0.87741
680.77325,0.88323
678.84472,0.88772
676.91618,0.89163
674.98765,0.89448
673.05911,0.89472
671.13057,0.89131
669.20204,0.88725
667.27350,0.89123
665.34497,0.89709
663.41643,0.89839
661.48789,0.89779
659.55936,0.89798
657.63082,0.89805
655.70228,0.89269
653.77375,0.87828
651.84521,0.86241
649.91668,0.85846
647.98814,0.86831
646.05960,0.88222
644.13107,0.89378
642.20253,0.90226
640.27400,0.90664
638.34546,0.90460
636.41692,0.89431
634.48839,0.87720
632.55985,0.86107
630.63131,0.85583
628.70278,0.86360
626.77424,0.87740
624.84571,0.88966
622.91717,0.89842
620.98863,0.90472
619.06010,0.90912
617.13156,0.91242
615.20303,0.91511
613.27449,0.91651
611.34595,0.91621
609.41742,0.91415
607.48888,0.90966
605.56035,0.90155
603.63181,0.88898
601.70327,0.87282
599.77474,0.85657
597.84620,0.84553
595.91766,0.84272
593.98913,0.84663
592.06059,0.85235
590.13206,0.85152
588.20352,0.83603
586.27498,0.80376
584.34645,0.76325
582.41791,0.73081
580.48938,0.71630
578.56084,0.71840
576.63230,0.73289
574.70377,0.75738
572.77523,0.78722
570.84669,0.81721
568.91816,0.84321
566.98962,0.86250
565.06109,0.87530
563.13255,0.88348
561.20401,0.88852
559.27548,0.89122
557.34694,0.89238
555.41841,0.89275
553.48987,0.89311
551.56133,0.89391
549.63280,0.89445
547.70426,0.89330
545.77573,0.88926
543.84719,0.88136
541.91865,0.86991
539.99012,0.85806
538.06158,0.84941
536.13304,0.84471
534.20451,0.84351
532.27597,0.84628
530.34744,0.85243
528.41890,0.85952
526.49036,0.86512
524.56183,0.86700
522.63329,0.86522
520.70476,0.86266
518.77622,0.86267
516.84768,0.86643
514.91915,0.87048
512.99061,0.87105
511.06207,0.86673
509.13354,0.85684
507.20500,0.84071
505.27647,0.82004
503.34793,0.79785
501.41939,0.77908
499.49086,0.77227
497.56232,0.77862
495.63379,0.79134
493.70525,0.80244
491.77671,0.81027
489.84818,0.81943
487.91964,0.83130
485.99110,0.84140
484.06257,0.84505
482.13403,0.84510
480.20550,0.84932
478.27696,0.86007
476.34842,0.87219
474.41989,0.87935
472.49135,0.88076
470.56282,0.87934
468.63428,0.87715
466.70574,0.87501
464.77721,0.87222
462.84867,0.86674
460.92014,0.86052
458.99160,0.86070
457.06306,0.87054
455.13453,0.87952
453.20599,0.88097
451.27745,0.87898
449.34892,0.87855
447.42038,0.88002
445.49185,0.88142
443.56331,0.88272
441.63477,0.88357
439.70624,0.88335
437.77770,0.88333
435.84917,0.88351
433.92063,0.88131
431.99209,0.87414
430.06356,0.86105
428.13502,0.84473
426.20648,0.83194
424.27795,0.82996
422.34941,0.83744
420.42088,0.84836
418.49234,0.86424
416.56380,0.87694
414.63527,0.88222
412.70673,0.88442
410.77820,0.88467
408.84966,0.88422
406.92112,0.88378
404.99259,0.88174
403.06405,0.87798
401.13552,0.87496
399.20698,0.87400
