3997.85540,0.97793
3995.92686,0.97799
3993.99833,0.97801
3992.06979,0.97798
3990.14125,0.97794
3988.21272,0.97789
3986.28418,0.97784
3984.35565,0.97786
3982.42711,0.97791
3980.49857,0.97788
3978.57004,0.97787
3976.64150,0.97802
3974.71297,0.97816
3972.78443,0.97808
3970.85589,0.97791
3968.92736,0.97787
3966.99882,0.97797
3965.07029,0.97810
3963.14175,0.97818
3961.21321,0.97818
3959.28468,0.97811
3957.35614,0.97802
3955.42760,0.97801
3953.49907,0.97804
3951.57053,0.97800
3949.64200,0.97793
3947.71346,0.97793
3945.78492,0.97795
3943.85639,0.97794
3941.92785,0.97800
3939.99932,0.97816
3938.07078,0.97823
3936.14224,0.97817
3934.21371,0.97810
3932.28517,0.97816
3930.35663,0.97827
3928.42810,0.97824
3926.49956,0.97812
3924.57103,0.97803
3922.64249,0.97797
3920.71395,0.97797
3918.78542,0.97807
3916.85688,0.97815
3914.92835,0.97813
3912.99981,0.97807
3911.07127,0.97808
3909.14274,0.97822
3907.21420,0.97841
3905.28566,0.97856
3903.35713,0.97858
3901.42859,0.97846
3899.50006,0.97826
3897.57152,0.97811
3895.64298,0.97807
3893.71445,0.97810
3891.78591,0.97816
3889.85738,0.97822
3887.92884,0.97828
3886.00030,0.97839
3884.07177,0.97850
3882.14323,0.97850
3880.21470,0.97845
3878.28616,0.97843
3876.35762,0.97844
3874.42909,0.97852
3872.50055,0.97849
3870.57201,0.97826
3868.64348,0.97823
3866.71494,0.97839
3864.78641,0.97845
3862.85787,0.97843
3860.92933,0.97848
3859.00080,0.97858
3857.07226,0.97865
3855.14373,0.97874
3853.21519,0.97902
3851.28665,0.97910
3849.35812,0.97892
3847.42958,0.97879
3845.50104,0.97878
3843.57251,0.97885
3841.64397,0.97887
3839.71544,0.97884
3837.78690,0.97892
3835.85836,0.97893
3833.92983,0.97880
3832.00129,0.97878
3830.07276,0.97889
3828.14422,0.97892
3826.21568,0.97889
3824.28715,0.97890
3822.35861,0.97888
3820.43008,0.97886
3818.50154,0.97899
3816.57300,0.97895
3814.64447,0.97867
3812.71593,0.97853
3810.78739,0.97857
3808.85886,0.97869
3806.93032,0.97886
3805.00179,0.97898
3803.07325,0.97908
3801.14471,0.97922
3799.21618,0.97921
3797.28764,0.97912
3795.35911,0.97899
3793.43057,0.97884
3791.50203,0.97882
3789.57350,0.97896
3787.64496,0.97912
3785.71642,0.97922
3783.78789,0.97930
3781.85935,0.97940
3779.93082,0.97951
3778.00228,0.97948
3776.07374,0.97930
3774.14521,0.97913
3772.21667,0.97906
3770.28814,0.97911
3768.35960,0.97924
3766.43106,0.97938
3764.50253,0.97944
3762.57399,0.97933
3760.64546,0.97913
3758.71692,0.97920
3756.78838,0.97952
3754.85985,0.97963
3752.93131,0.97971
3751.00277,0.98018
3749.07424,0.98025
3747.14570,0.97977
3745.21717,0.97937
3743.28863,0.97930
3741.36009,0.97944
3739.43156,0.97961
3737.50302,0.97981
3735.57449,0.98008
3733.64595,0.98007
3731.71741,0.97961
3729.78888,0.97933
3727.86034,0.97936
3725.93180,0.97950
3724.00327,0.97950
3722.07473,0.97947
3720.14620,0.97949
3718.21766,0.97948
3716.28912,0.97950
3714.36059,0.97966
3712.43205,0.97989
3710.50352,0.97981
3708.57498,0.97952
3706.64644,0.97945
3704.71791,0.97954
3702.78937,0.97967
3700.86084,0.97970
3698.93230,0.97957
3697.00376,0.97937
3695.07523,0.97923
3693.14669,0.97925
3691.21815,0.97944
3689.28962,0.97960
3687.36108,0.97953
3685.43255,0.97943
3683.50401,0.97937
3681.57547,0.97939
3679.64694,0.97949
3677.71840,0.97951
3675.78987,0.97933
3673.86133,0.97919
3671.93279,0.97924
3670.00426,0.97926
3668.07572,0.97911
3666.14718,0.97889
3664.21865,0.97869
3662.29011,0.97850
3660.36158,0.97823
3658.43304,0.97783
3656.50450,0.97706
3654.57597,0.97608
3652.64743,0.97546
3650.71890,0.97500
3648.79036,0.97414
3646.86182,0.97379
3644.93329,0.97407
3643.00475,0.97448
3641.07622,0.97499
3639.14768,0.97560
3637.21914,0.97610
3635.29061,0.97642
3633.36207,0.97671
3631.43353,0.97718
3629.50500,0.97788
3627.57646,0.97811
3625.64793,0.97786
3623.71939,0.97778
3621.79085,0.97785
3619.86232,0.97798
3617.93378,0.97815
3616.00525,0.97837
3614.07671,0.97854
3612.14817,0.97868
3610.21964,0.97877
3608.29110,0.97865
3606.36256,0.97834
3604.43403,0.97821
3602.50549,0.97821
3600.57696,0.97821
3598.64842,0.97819
3596.71988,0.97820
3594.79135,0.97826
3592.86281,0.97824
3590.93428,0.97809
3589.00574,0.97797
3587.07720,0.97807
3585.14867,0.97811
3583.22013,0.97789
3581.29160,0.97771
3579.36306,0.97778
3577.43452,0.97797
3575.50599,0.97803
3573.57745,0.97790
3571.64891,0.97775
3569.72038,0.97772
3567.79184,0.97782
3565.86331,0.97777
3563.93477,0.97759
3562.00623,0.97764
3560.07770,0.97781
3558.14916,0.97785
3556.22063,0.97779
3554.29209,0.97771
3552.36355,0.97765
3550.43502,0.97764
3548.50648,0.97769
3546.57794,0.97778
3544.64941,0.97779
3542.72087,0.97761
3540.79234,0.97741
3538.86380,0.97734
3536.93526,0.97731
3535.00673,0.97727
3533.07819,0.97729
3531.14966,0.97740
3529.22112,0.97754
3527.29258,0.97754
3525.36405,0.97738
3523.43551,0.97723
3521.50697,0.97717
3519.57844,0.97719
3517.64990,0.97719
3515.72137,0.97713
3513.79283,0.97703
3511.86429,0.97699
3509.93576,0.97703
3508.00722,0.97704
3506.07869,0.97694
3504.15015,0.97682
3502.22161,0.97683
3500.29308,0.97695
3498.36454,0.97702
3496.43601,0.97698
3494.50747,0.97689
3492.57893,0.97682
3490.65040,0.97675
3488.72186,0.97667
3486.79332,0.97667
3484.86479,0.97675
3482.93625,0.97684
3481.00772,0.97680
3479.07918,0.97661
3477.15064,0.97644
3475.22211,0.97641
3473.29357,0.97646
3471.36504,0.97651
3469.43650,0.97656
3467.50796,0.97653
3465.57943,0.97638
3463.65089,0.97621
3461.72235,0.97610
3459.79382,0.97601
3457.86528,0.97596
3455.93675,0.97597
3454.00821,0.97605
3452.07967,0.97610
3450.15114,0.97614
3448.22260,0.97617
3446.29407,0.97614
3444.36553,0.97607
3442.43699,0.97596
3440.50846,0.97580
3438.57992,0.97575
3436.65139,0.97584
3434.72285,0.97591
3432.79431,0.97591
3430.86578,0.97591
3428.93724,0.97581
3427.00870,0.97559
3425.08017,0.97535
3423.15163,0.97520
3421.22310,0.97518
3419.29456,0.97516
3417.36602,0.97503
3415.43749,0.97493
3413.50895,0.97497
3411.58042,0.97501
3409.65188,0.97495
3407.72334,0.97489
3405.79481,0.97492
3403.86627,0.97503
3401.93773,0.97509
3400.00920,0.97496
3398.08066,0.97478
3396.15213,0.97477
3394.22359,0.97488
3392.29505,0.97487
3390.36652,0.97470
3388.43798,0.97451
3386.50945,0.97431
3384.58091,0.97413
3382.65237,0.97407
3380.72384,0.97409
3378.79530,0.97408
3376.86677,0.97396
3374.93823,0.97377
3373.00969,0.97368
3371.08116,0.97372
3369.15262,0.97379
3367.22408,0.97380
3365.29555,0.97368
3363.36701,0.97358
3361.43848,0.97353
3359.50994,0.97338
3357.58140,0.97314
3355.65287,0.97301
3353.72433,0.97305
3351.79580,0.97312
3349.86726,0.97301
3347.93872,0.97269
3346.01019,0.97249
3344.08165,0.97252
3342.15311,0.97258
3340.22458,0.97265
3338.29604,0.97259
3336.36751,0.97216
3334.43897,0.97155
3332.51043,0.97114
3330.58190,0.97110
3328.65336,0.97139
3326.72483,0.97183
3324.79629,0.97206
3322.86775,0.97195
3320.93922,0.97172
3319.01068,0.97159
3317.08215,0.97160
3315.15361,0.97161
3313.22507,0.97163
3311.29654,0.97174
3309.36800,0.97188
3307.43946,0.97187
3305.51093,0.97176
3303.58239,0.97159
3301.65386,0.97130
3299.72532,0.97105
3297.79678,0.97100
3295.86825,0.97101
3293.93971,0.97086
3292.01118,0.97055
3290.08264,0.97014
3288.15410,0.96972
3286.22557,0.96939
3284.29703,0.96918
3282.36849,0.96899
3280.43996,0.96878
3278.51142,0.96860
3276.58289,0.96841
3274.65435,0.96811
3272.72581,0.96762
3270.79728,0.96708
3268.86874,0.96656
3266.94021,0.96597
3265.01167,0.96531
3263.08313,0.96464
3261.15460,0.96394
3259.22606,0.96315
3257.29753,0.96225
3255.36899,0.96126
3253.44045,0.96022
3251.51192,0.95911
3249.58338,0.95788
3247.65484,0.95651
3245.72631,0.95505
3243.79777,0.95359
3241.86924,0.95219
3239.94070,0.95085
3238.01216,0.94965
3236.08363,0.94871
3234.15509,0.94806
3232.22656,0.94754
3230.29802,0.94715
3228.36948,0.94693
3226.44095,0.94676
3224.51241,0.94652
3222.58387,0.94630
3220.65534,0.94606
3218.72680,0.94573
3216.79827,0.94536
3214.86973,0.94500
3212.94119,0.94464
3211.01266,0.94417
3209.08412,0.94349
3207.15559,0.94263
3205.22705,0.94165
3203.29851,0.94056
3201.36998,0.93949
3199.44144,0.93861
3197.51290,0.93799
3195.58437,0.93763
3193.65583,0.93759
3191.72730,0.93792
3189.79876,0.93849
3187.87022,0.93905
3185.94169,0.93948
3184.01315,0.93977
3182.08462,0.93980
3180.15608,0.93947
3178.22754,0.93880
3176.29901,0.93791
3174.37047,0.93698
3172.44194,0.93627
3170.51340,0.93580
3168.58486,0.93541
3166.65633,0.93514
3164.72779,0.93514
3162.79925,0.93545
3160.87072,0.93600
3158.94218,0.93668
3157.01365,0.93743
3155.08511,0.93821
3153.15657,0.93895
3151.22804,0.93961
3149.29950,0.94027
3147.37097,0.94098
3145.44243,0.94181
3143.51389,0.94282
3141.58536,0.94393
3139.65682,0.94504
3137.72828,0.94621
3135.79975,0.94737
3133.87121,0.94844
3131.94268,0.94949
3130.01414,0.95051
3128.08560,0.95140
3126.15707,0.95220
3124.22853,0.95295
3122.30000,0.95361
3120.37146,0.95412
3118.44292,0.95457
3116.51439,0.95508
3114.58585,0.95564
3112.65732,0.95617
3110.72878,0.95671
3108.80024,0.95721
3106.87171,0.95759
3104.94317,0.95783
3103.01463,0.95802
3101.08610,0.95819
3099.15756,0.95820
3097.22903,0.95790
3095.30049,0.95752
3093.37195,0.95751
3091.44342,0.95787
3089.51488,0.95816
3087.58635,0.95819
3085.65781,0.95819
3083.72927,0.95818
3081.80074,0.95801
3079.87220,0.95762
3077.94366,0.95695
3076.01513,0.95604
3074.08659,0.95510
3072.15806,0.95433
3070.22952,0.95377
3068.30098,0.95321
3066.37245,0.95248
3064.44391,0.95163
3062.51538,0.95079
3060.58684,0.95017
3058.65830,0.94998
3056.72977,0.95019
3054.80123,0.95054
3052.87270,0.95082
3050.94416,0.95097
3049.01562,0.95091
3047.08709,0.95067
3045.15855,0.95030
3043.23001,0.94964
3041.30148,0.94864
3039.37294,0.94747
3037.44441,0.94628
3035.51587,0.94510
3033.58733,0.94382
3031.65880,0.94247
3029.73026,0.94122
3027.80173,0.94035
3025.87319,0.93980
3023.94465,0.93919
3022.01612,0.93837
3020.08758,0.93749
3018.15904,0.93650
3016.23051,0.93530
3014.30197,0.93391
3012.37344,0.93242
3010.44490,0.93093
3008.51636,0.92957
3006.58783,0.92856
3004.65929,0.92801
3002.73076,0.92777
3000.80222,0.92781
2998.87368,0.92821
2996.94515,0.92874
2995.01661,0.92914
2993.08808,0.92924
2991.15954,0.92871
2989.23100,0.92740
2987.30247,0.92557
2985.37393,0.92329
2983.44539,0.92037
2981.51686,0.91646
2979.58832,0.91115
2977.65979,0.90424
2975.73125,0.89581
2973.80271,0.88568
2971.87418,0.87383
2969.94564,0.86087
2968.01711,0.84762
2966.08857,0.83486
2964.16003,0.82340
2962.23150,0.81361
2960.30296,0.80549
2958.37442,0.79916
2956.44589,0.79507
2954.51735,0.79372
2952.58882,0.79521
2950.66028,0.79903
2948.73174,0.80400
2946.80321,0.80825
2944.87467,0.80989
2942.94614,0.80784
2941.01760,0.80191
2939.08906,0.79253
2937.16053,0.78045
2935.23199,0.76635
2933.30346,0.75084
2931.37492,0.73466
2929.44638,0.71861
2927.51785,0.70381
2925.58931,0.69193
2923.66077,0.68478
2921.73224,0.68371
2919.80370,0.68887
2917.87517,0.69892
2915.94663,0.71161
2914.01809,0.72486
2912.08956,0.73739
2910.16102,0.74868
2908.23249,0.75872
2906.30395,0.76792
2904.37541,0.77672
2902.44688,0.78527
2900.51834,0.79358
2898.58980,0.80171
2896.66127,0.80976
2894.73273,0.81768
2892.80420,0.82539
2890.87566,0.83290
2888.94712,0.84006
2887.01859,0.84653
2885.09005,0.85188
2883.16152,0.85570
2881.23298,0.85755
2879.30444,0.85709
2877.37591,0.85424
2875.44737,0.84942
2873.51883,0.84381
2871.59030,0.83909
2869.66176,0.83629
2867.73323,0.83476
2865.80469,0.83267
2863.87615,0.82826
2861.94762,0.82054
2860.01908,0.80952
2858.09055,0.79651
2856.16201,0.78433
2854.23347,0.77659
2852.30494,0.77636
2850.37640,0.78459
2848.44787,0.79958
2846.51933,0.81810
2844.59079,0.83719
2842.66226,0.85518
2840.73372,0.87142
2838.80518,0.88552
2836.87665,0.89717
2834.94811,0.90643
2833.01958,0.91369
2831.09104,0.91934
2829.16250,0.92374
2827.23397,0.92722
2825.30543,0.92999
2823.37690,0.93220
2821.44836,0.93394
2819.51982,0.93541
2817.59129,0.93676
2815.66275,0.93807
2813.73421,0.93938
2811.80568,0.94068
2809.87714,0.94185
2807.94861,0.94292
2806.02007,0.94395
2804.09153,0.94491
2802.16300,0.94585
2800.23446,0.94683
2798.30593,0.94775
2796.37739,0.94851
2794.44885,0.94911
2792.52032,0.94969
2790.59178,0.95031
2788.66325,0.95082
2786.73471,0.95120
2784.80617,0.95165
2782.87764,0.95225
2780.94910,0.95291
2779.02056,0.95366
2777.09203,0.95452
2775.16349,0.95534
2773.23496,0.95599
2771.30642,0.95646
2769.37788,0.95683
2767.44935,0.95715
2765.52081,0.95746
2763.59228,0.95771
2761.66374,0.95792
2759.73520,0.95818
2757.80667,0.95851
2755.87813,0.95877
2753.94959,0.95894
2752.02106,0.95917
2750.09252,0.95947
2748.16399,0.95965
2746.23545,0.95964
2744.30691,0.95956
2742.37838,0.95959
2740.44984,0.95981
2738.52131,0.96011
2736.59277,0.96022
2734.66423,0.96009
2732.73570,0.95994
2730.80716,0.95993
2728.87863,0.96012
2726.95009,0.96042
2725.02155,0.96061
2723.09302,0.96059
2721.16448,0.96049
2719.23594,0.96043
2717.30741,0.96046
2715.37887,0.96056
2713.45034,0.96072
2711.52180,0.96097
2709.59326,0.96122
2707.66473,0.96143
2705.73619,0.96159
2703.80766,0.96169
2701.87912,0.96174
2699.95058,0.96178
2698.02205,0.96178
2696.09351,0.96173
2694.16497,0.96164
2692.23644,0.96152
2690.30790,0.96138
2688.37937,0.96129
2686.45083,0.96127
2684.52229,0.96128
2682.59376,0.96132
2680.66522,0.96138
2678.73669,0.96141
2676.80815,0.96142
2674.87961,0.96139
2672.95108,0.96139
2671.02254,0.96146
2669.09401,0.96157
2667.16547,0.96170
2665.23693,0.96186
2663.30840,0.96203
2661.37986,0.96223
2659.45132,0.96250
2657.52279,0.96278
2655.59425,0.96304
2653.66572,0.96328
2651.73718,0.96349
2649.80864,0.96367
2647.88011,0.96382
2645.95157,0.96396
2644.02304,0.96415
2642.09450,0.96439
2640.16596,0.96457
2638.23743,0.96466
2636.30889,0.96477
2634.38035,0.96488
2632.45182,0.96489
2630.52328,0.96490
2628.59475,0.96509
2626.66621,0.96536
2624.73767,0.96554
2622.80914,0.96573
2620.88060,0.96601
2618.95207,0.96635
2617.02353,0.96659
2615.09499,0.96671
2613.16646,0.96686
2611.23792,0.96707
2609.30939,0.96718
2607.38085,0.96722
2605.45231,0.96730
2603.52378,0.96739
2601.59524,0.96748
2599.66670,0.96760
2597.73817,0.96768
2595.80963,0.96774
2593.88110,0.96781
2591.95256,0.96788
2590.02402,0.96799
2588.09549,0.96808
2586.16695,0.96809
2584.23842,0.96807
2582.30988,0.96806
2580.38134,0.96808
2578.45281,0.96813
2576.52427,0.96816
2574.59573,0.96814
2572.66720,0.96811
2570.73866,0.96808
2568.81013,0.96792
2566.88159,0.96765
2564.95305,0.96748
2563.02452,0.96750
2561.09598,0.96755
2559.16745,0.96751
2557.23891,0.96750
2555.31037,0.96765
2553.38184,0.96784
2551.45330,0.96800
2549.52476,0.96817
2547.59623,0.96838
2545.66769,0.96865
2543.73916,0.96894
2541.81062,0.96915
2539.88208,0.96933
2537.95355,0.96958
2536.02501,0.96975
2534.09648,0.96976
2532.16794,0.96978
2530.23940,0.96989
2528.31087,0.96998
2526.38233,0.97007
2524.45380,0.97015
2522.52526,0.97019
2520.59672,0.97029
2518.66819,0.97042
2516.73965,0.97049
2514.81111,0.97048
2512.88258,0.97035
2510.95404,0.97013
2509.02551,0.96997
2507.09697,0.96996
2505.16843,0.96998
2503.23990,0.96993
2501.31136,0.96986
2499.38283,0.96989
2497.45429,0.97003
2495.52575,0.97014
2493.59722,0.97018
2491.66868,0.97025
2489.74014,0.97031
2487.81161,0.97032
2485.88307,0.97029
2483.95454,0.97031
2482.02600,0.97042
2480.09746,0.97047
2478.16893,0.97043
2476.24039,0.97040
2474.31186,0.97044
2472.38332,0.97052
2470.45478,0.97057
2468.52625,0.97057
2466.59771,0.97055
2464.66918,0.97045
2462.74064,0.97026
2460.81210,0.97010
2458.88357,0.97000
2456.95503,0.97002
2455.02649,0.97015
2453.09796,0.97029
2451.16942,0.97043
2449.24089,0.97065
2447.31235,0.97093
2445.38381,0.97115
2443.45528,0.97126
2441.52674,0.97129
2439.59821,0.97126
2437.66967,0.97127
2435.74113,0.97140
2433.81260,0.97148
2431.88406,0.97142
2429.95552,0.97126
2428.02699,0.97115
2426.09845,0.97110
2424.16992,0.97101
2422.24138,0.97092
2420.31284,0.97085
2418.38431,0.97081
2416.45577,0.97085
2414.52724,0.97100
2412.59870,0.97112
2410.67016,0.97108
2408.74163,0.97090
2406.81309,0.97077
2404.88456,0.97076
2402.95602,0.97070
2401.02748,0.97056
2399.09895,0.97053
2397.17041,0.97066
2395.24187,0.97077
2393.31334,0.97074
2391.38480,0.97056
2389.45627,0.97041
2387.52773,0.97032
2385.59919,0.97023
2383.67066,0.97009
2381.74212,0.96985
2379.81359,0.96951
2377.88505,0.96908
2375.95651,0.96857
2374.02798,0.96812
2372.09944,0.96784
2370.17090,0.96744
2368.24237,0.96672
2366.31383,0.96596
2364.38530,0.96540
2362.45676,0.96505
2360.52822,0.96479
2358.59969,0.96480
2356.67115,0.96530
2354.74262,0.96633
2352.81408,0.96743
2350.88554,0.96804
2348.95701,0.96817
2347.02847,0.96796
2345.09994,0.96753
2343.17140,0.96729
2341.24286,0.96739
2339.31433,0.96745
2337.38579,0.96748
2335.45725,0.96764
2333.52872,0.96777
2331.60018,0.96777
2329.67165,0.96775
2327.74311,0.96779
2325.81457,0.96797
2323.88604,0.96835
2321.95750,0.96880
2320.02897,0.96936
2318.10043,0.97006
2316.17189,0.97056
2314.24336,0.97065
2312.31482,0.97067
2310.38628,0.97085
2308.45775,0.97107
2306.52921,0.97130
2304.60068,0.97156
2302.67214,0.97174
2300.74360,0.97181
2298.81507,0.97182
2296.88653,0.97182
2294.95800,0.97187
2293.02946,0.97195
2291.10092,0.97205
2289.17239,0.97228
2287.24385,0.97257
2285.31532,0.97276
2283.38678,0.97290
2281.45824,0.97309
2279.52971,0.97325
2277.60117,0.97337
2275.67263,0.97351
2273.74410,0.97368
2271.81556,0.97388
2269.88703,0.97409
2267.95849,0.97415
2266.02995,0.97398
2264.10142,0.97371
2262.17288,0.97357
2260.24435,0.97367
2258.31581,0.97390
2256.38727,0.97411
2254.45874,0.97419
2252.53020,0.97415
2250.60166,0.97408
2248.67313,0.97408
2246.74459,0.97424
2244.81606,0.97448
2242.88752,0.97464
2240.95898,0.97472
2239.03045,0.97473
2237.10191,0.97457
2235.17338,0.97444
2233.24484,0.97463
2231.31630,0.97497
2229.38777,0.97506
2227.45923,0.97491
2225.53070,0.97474
2223.60216,0.97467
2221.67362,0.97469
2219.74509,0.97488
2217.81655,0.97526
2215.88801,0.97552
2213.95948,0.97543
2212.03094,0.97525
2210.10241,0.97534
2208.17387,0.97565
2206.24533,0.97601
2204.31680,0.97623
2202.38826,0.97620
2200.45973,0.97604
2198.53119,0.97601
2196.60265,0.97630
2194.67412,0.97663
2192.74558,0.97662
2190.81704,0.97646
2188.88851,0.97655
2186.95997,0.97674
2185.03144,0.97685
2183.10290,0.97707
2181.17436,0.97720
2179.24583,0.97702
2177.31729,0.97670
2175.38876,0.97654
2173.46022,0.97677
2171.53168,0.97720
2169.60315,0.97746
2167.67461,0.97744
2165.74607,0.97755
2163.81754,0.97810
2161.88900,0.97877
2159.96047,0.97903
2158.03193,0.97867
2156.10339,0.97809
2154.17486,0.97781
2152.24632,0.97777
2150.31779,0.97757
2148.38925,0.97714
2146.46071,0.97683
2144.53218,0.97671
2142.60364,0.97662
2140.67511,0.97662
2138.74657,0.97676
2136.81803,0.97679
2134.88950,0.97667
2132.96096,0.97662
2131.03242,0.97647
2129.10389,0.97618
2127.17535,0.97596
2125.24682,0.97595
2123.31828,0.97606
2121.38974,0.97611
2119.46121,0.97608
2117.53267,0.97601
2115.60414,0.97597
2113.67560,0.97592
2111.74706,0.97575
2109.81853,0.97559
2107.88999,0.97572
2105.96145,0.97607
2104.03292,0.97625
2102.10438,0.97618
2100.17585,0.97610
2098.24731,0.97613
2096.31877,0.97617
2094.39024,0.97616
2092.46170,0.97623
2090.53317,0.97632
2088.60463,0.97628
2086.67609,0.97619
2084.74756,0.97622
2082.81902,0.97633
2080.89049,0.97636
2078.96195,0.97639
2077.03341,0.97633
2075.10488,0.97618
2073.17634,0.97622
2071.24780,0.97646
2069.31927,0.97677
2067.39073,0.97709
2065.46220,0.97729
2063.53366,0.97736
2061.60512,0.97744
2059.67659,0.97744
2057.74805,0.97725
2055.81952,0.97699
2053.89098,0.97689
2051.96244,0.97704
2050.03391,0.97752
2048.10537,0.97820
2046.17683,0.97862
2044.24830,0.97889
2042.31976,0.97937
2040.39123,0.97973
2038.46269,0.97995
2036.53415,0.98032
2034.60562,0.98048
2032.67708,0.98013
2030.74855,0.97995
2028.82001,0.98026
2026.89147,0.98039
2024.96294,0.98022
2023.03440,0.98014
2021.10587,0.98015
2019.17733,0.98015
2017.24879,0.98003
2015.32026,0.97985
2013.39172,0.97969
2011.46318,0.97943
2009.53465,0.97924
2007.60611,0.97929
2005.67758,0.97941
2003.74904,0.97932
2001.82050,0.97905
1999.89197,0.97897
1997.96343,0.97918
1996.03490,0.97945
1994.10636,0.97956
1992.17782,0.97937
1990.24929,0.97907
1988.32075,0.97892
1986.39221,0.97864
1984.46368,0.97817
1982.53514,0.97808
1980.60661,0.97860
1978.67807,0.97935
1976.74953,0.97986
1974.82100,0.97988
1972.89246,0.97945
1970.96393,0.97878
1969.03539,0.97802
1967.10685,0.97745
1965.17832,0.97735
1963.24978,0.97749
1961.32125,0.97770
1959.39271,0.97805
1957.46417,0.97837
1955.53564,0.97859
1953.60710,0.97867
1951.67856,0.97850
1949.75003,0.97822
1947.82149,0.97818
1945.89296,0.97853
1943.96442,0.97899
1942.03588,0.97899
1940.10735,0.97851
1938.17881,0.97819
1936.25028,0.97811
1934.32174,0.97799
1932.39320,0.97774
1930.46467,0.97756
1928.53613,0.97740
1926.60759,0.97704
1924.67906,0.97658
1922.75052,0.97603
1920.82199,0.97573
1918.89345,0.97585
1916.96491,0.97599
1915.03638,0.97603
1913.10784,0.97609
1911.17931,0.97595
1909.25077,0.97540
1907.32223,0.97456
1905.39370,0.97367
1903.46516,0.97317
1901.53663,0.97337
1899.60809,0.97397
1897.67955,0.97459
1895.75102,0.97509
1893.82248,0.97543
1891.89394,0.97554
1889.96541,0.97550
1888.03687,0.97546
1886.10834,0.97544
1884.17980,0.97536
1882.25126,0.97520
1880.32273,0.97512
1878.39419,0.97520
1876.46566,0.97531
1874.53712,0.97538
1872.60858,0.97550
1870.68005,0.97572
1868.75151,0.97583
1866.82297,0.97573
1864.89444,0.97559
1862.96590,0.97548
1861.03737,0.97539
1859.10883,0.97523
1857.18029,0.97509
1855.25176,0.97505
1853.32322,0.97506
1851.39469,0.97498
1849.46615,0.97484
1847.53761,0.97475
1845.60908,0.97461
1843.68054,0.97425
1841.75200,0.97397
1839.82347,0.97406
1837.89493,0.97436
1835.96640,0.97460
1834.03786,0.97461
1832.10932,0.97452
1830.18079,0.97433
1828.25225,0.97369
1826.32372,0.97282
1824.39518,0.97207
1822.46664,0.97192
1820.53811,0.97232
1818.60957,0.97285
1816.68104,0.97328
1814.75250,0.97349
1812.82396,0.97355
1810.89543,0.97335
1808.96689,0.97290
1807.03835,0.97237
1805.10982,0.97182
1803.18128,0.97118
1801.25275,0.97023
1799.32421,0.96902
1797.39567,0.96785
1795.46714,0.96686
1793.53860,0.96588
1791.61007,0.96448
1789.68153,0.96332
1787.75299,0.96277
1785.82446,0.96257
1783.89592,0.96252
1781.96738,0.96248
1780.03885,0.96259
1778.11031,0.96296
1776.18178,0.96360
1774.25324,0.96442
1772.32470,0.96522
1770.39617,0.96557
1768.46763,0.96562
1766.53910,0.96559
1764.61056,0.96548
1762.68202,0.96520
1760.75349,0.96455
1758.82495,0.96368
1756.89642,0.96238
1754.96788,0.96077
1753.03934,0.95905
1751.11081,0.95631
1749.18227,0.95158
1747.25373,0.94639
1745.32520,0.94182
1743.39666,0.93747
1741.46813,0.93394
1739.53959,0.93207
1737.61105,0.93184
1735.68252,0.93318
1733.75398,0.93720
1731.82545,0.94140
1729.89691,0.94355
1727.96837,0.94490
1726.03984,0.94574
1724.11130,0.94621
1722.18276,0.94626
1720.25423,0.94597
1718.32569,0.94511
1716.39716,0.94255
1714.46862,0.93997
1712.54008,0.93864
1710.61155,0.93806
1708.68301,0.93814
1706.75448,0.93913
1704.82594,0.94094
1702.89740,0.94241
1700.96887,0.94335
1699.04033,0.94367
1697.11180,0.94266
1695.18326,0.94076
1693.25472,0.93882
1691.32619,0.93644
1689.39765,0.93291
1687.46911,0.92950
1685.54058,0.92682
1683.61204,0.92249
1681.68351,0.91678
1679.75497,0.91015
1677.82643,0.90075
1675.89790,0.88253
1673.96936,0.85557
1672.04083,0.83213
1670.11229,0.80966
1668.18375,0.79644
1666.25522,0.79953
1664.32668,0.81116
1662.39814,0.83146
1660.46961,0.85049
1658.54107,0.86221
1656.61254,0.87062
1654.68400,0.87893
1652.75546,0.89141
1650.82693,0.89730
1648.89839,0.89792
1646.96986,0.89580
1645.04132,0.89399
1643.11278,0.89604
1641.18425,0.90023
1639.25571,0.90493
1637.32718,0.90979
1635.39864,0.91535
1633.47010,0.91825
1631.54157,0.91986
1629.61303,0.92223
1627.68449,0.92582
1625.75596,0.92941
1623.82742,0.93251
1621.89889,0.93477
1619.97035,0.93531
1618.04181,0.93452
1616.11328,0.93287
1614.18474,0.93278
1612.25621,0.93438
1610.32767,0.93670
1608.39913,0.93884
1606.47060,0.93981
1604.54206,0.94002
1602.61352,0.94046
1600.68499,0.94155
1598.75645,0.94271
1596.82792,0.94347
1594.89938,0.94397
1592.97084,0.94447
1591.04231,0.94523
1589.11377,0.94614
1587.18524,0.94696
1585.25670,0.94698
1583.32816,0.94430
1581.39963,0.93855
1579.47109,0.93376
1577.54256,0.93493
1575.61402,0.94233
1573.68548,0.94622
1571.75695,0.94662
1569.82841,0.94585
1567.89987,0.94407
1565.97134,0.94145
1564.04280,0.93819
1562.11427,0.93533
1560.18573,0.93153
1558.25719,0.91974
1556.32866,0.91000
1554.40012,0.90249
1552.47159,0.89310
1550.54305,0.88043
1548.61451,0.86614
1546.68598,0.85549
1544.75744,0.84685
1542.82890,0.83828
1540.90037,0.83298
1538.97183,0.83301
1537.04330,0.83519
1535.11476,0.83978
1533.18622,0.85041
1531.25769,0.86167
1529.32915,0.86983
1527.40062,0.87897
1525.47208,0.88833
1523.54354,0.89420
1521.61501,0.89584
1519.68647,0.89408
1517.75793,0.88855
1515.82940,0.87744
1513.90086,0.86513
1511.97233,0.85358
1510.04379,0.84376
1508.11525,0.83754
1506.18672,0.83160
1504.25818,0.82004
1502.32965,0.80246
1500.40111,0.77766
1498.47257,0.74868
1496.54404,0.72664
1494.61550,0.71866
1492.68697,0.71493
1490.75843,0.70614
1488.82989,0.68925
1486.90136,0.67787
1484.97282,0.67333
1483.04428,0.67302
1481.11575,0.67881
1479.18721,0.68945
1477.25868,0.70220
1475.33014,0.71621
1473.40160,0.72959
1471.47307,0.73610
1469.54453,0.73644
1467.61600,0.73631
1465.68746,0.73858
1463.75892,0.74371
1461.83039,0.74823
1459.90185,0.75222
1457.97331,0.76114
1456.04478,0.77786
1454.11624,0.78847
1452.18771,0.79675
1450.25917,0.80483
1448.33063,0.80877
1446.40210,0.79646
1444.47356,0.76377
1442.54503,0.72862
1440.61649,0.71447
1438.68795,0.72585
1436.75942,0.75450
1434.83088,0.78154
1432.90235,0.79693
1430.97381,0.81005
1429.04527,0.82261
1427.11674,0.83137
1425.18820,0.83795
1423.25966,0.84414
1421.33113,0.84871
1419.40259,0.85134
1417.47406,0.85220
1415.54552,0.85276
1413.61698,0.85375
1411.68845,0.85306
1409.75991,0.84954
1407.83138,0.84575
1405.90284,0.84373
1403.97430,0.84241
1402.04577,0.84067
1400.11723,0.83976
1398.18869,0.84125
1396.26016,0.84390
1394.33162,0.84529
1392.40309,0.84637
1390.47455,0.84846
1388.54601,0.85122
1386.61748,0.85283
1384.68894,0.85102
1382.76041,0.84558
1380.83187,0.83601
1378.90333,0.82353
1376.97480,0.81215
1375.04626,0.80485
1373.11773,0.80362
1371.18919,0.80686
1369.26065,0.81013
1367.33212,0.80958
1365.40358,0.80531
1363.47504,0.80352
1361.54651,0.81289
1359.61797,0.82892
1357.68944,0.84305
1355.76090,0.85455
1353.83236,0.86369
1351.90383,0.87050
1349.97529,0.87568
1348.04676,0.87973
1346.11822,0.88265
1344.18968,0.88474
1342.26115,0.88668
1340.33261,0.88921
1338.40407,0.89222
1336.47554,0.89455
1334.54700,0.89625
1332.61847,0.89772
1330.68993,0.89867
1328.76139,0.89792
1326.83286,0.89276
1324.90432,0.88059
1322.97579,0.86389
1321.04725,0.84894
1319.11871,0.83961
1317.19018,0.83672
1315.26164,0.83848
1313.33311,0.84251
1311.40457,0.84815
1309.47603,0.85494
1307.54750,0.86180
1305.61896,0.86755
1303.69042,0.87151
1301.76189,0.87382
1299.83335,0.87490
1297.90482,0.87504
1295.97628,0.87408
1294.04774,0.87173
1292.11921,0.86817
1290.19067,0.86336
1288.26214,0.85612
1286.33360,0.84433
1284.40506,0.82630
1282.47653,0.80209
1280.54799,0.77532
1278.61945,0.75314
1276.69092,0.74163
1274.76238,0.74210
1272.83385,0.75186
1270.90531,0.76690
1268.97677,0.78316
1267.04824,0.79797
1265.11970,0.81023
1263.19117,0.81927
1261.26263,0.82443
1259.33409,0.82500
1257.40556,0.82199
1255.47702,0.81827
1253.54849,0.81574
1251.61995,0.81430
1249.69141,0.81400
1247.76288,0.81613
1245.83434,0.82141
1243.90580,0.82862
1241.97727,0.83557
1240.04873,0.84081
1238.12020,0.84412
1236.19166,0.84609
1234.26312,0.84773
1232.33459,0.84996
1230.40605,0.85316
1228.47752,0.85695
1226.54898,0.86061
1224.62044,0.86364
1222.69191,0.86583
1220.76337,0.86712
1218.83483,0.86717
1216.90630,0.86520
1214.97776,0.86030
1213.04923,0.85213
1211.12069,0.84264
1209.19215,0.83649
1207.26362,0.83681
1205.33508,0.84169
1203.40655,0.84695
1201.47801,0.85021
1199.54947,0.85039
1197.62094,0.84545
1195.69240,0.83348
1193.76387,0.81586
1191.83533,0.79727
1189.90679,0.78174
1187.97826,0.77079
1186.04972,0.76577
1184.12118,0.76826
1182.19265,0.77792
1180.26411,0.79233
1178.33558,0.80828
1176.40704,0.82311
1174.47850,0.83537
1172.54997,0.84445
1170.62143,0.85027
1168.69290,0.85310
1166.76436,0.85318
1164.83582,0.85105
1162.90729,0.84821
1160.97875,0.84697
1159.05021,0.84880
1157.12168,0.85327
1155.19314,0.85890
1153.26461,0.86409
1151.33607,0.86686
1149.40753,0.86493
1147.47900,0.85826
1145.55046,0.85157
1143.62193,0.85060
1141.69339,0.85569
1139.76485,0.86326
1137.83632,0.87103
1135.90778,0.87847
1133.97924,0.88507
1132.05071,0.89035
1130.12217,0.89433
1128.19364,0.89743
1126.26510,0.89992
1124.33656,0.90166
1122.40803,0.90268
1120.47949,0.90378
1118.55096,0.90560
1116.62242,0.90770
1114.69388,0.90937
1112.76535,0.91062
1110.83681,0.91172
1108.90828,0.91273
1106.97974,0.91363
1105.05120,0.91449
1103.12267,0.91532
1101.19413,0.91582
1099.26559,0.91525
1097.33706,0.91320
1095.40852,0.91032
1093.47999,0.90720
1091.55145,0.90189
1089.62291,0.89025
1087.69438,0.86948
1085.76584,0.84058
1083.83731,0.80864
1081.90877,0.78323
1079.98023,0.77586
1078.05170,0.78952
1076.12316,0.81292
1074.19462,0.82930
1072.26609,0.82590
1070.33755,0.79838
1068.40902,0.75713
1066.48048,0.72595
1064.55194,0.72269
1062.62341,0.74353
1060.69487,0.77269
1058.76634,0.79937
1056.83780,0.82080
1054.90926,0.83711
1052.98073,0.84899
1051.05219,0.85767
1049.12366,0.86420
1047.19512,0.86889
1045.26658,0.87193
1043.33805,0.87403
1041.40951,0.87599
1039.48097,0.87809
1037.55244,0.87981
1035.62390,0.87971
1033.69537,0.87580
1031.76683,0.86955
1029.83829,0.86677
1027.90976,0.86772
1025.98122,0.86439
1024.05269,0.85199
1022.12415,0.83298
1020.19561,0.81232
1018.26708,0.79423
1016.33854,0.78090
1014.41000,0.77321
1012.48147,0.77166
1010.55293,0.77577
1008.62440,0.78340
1006.69586,0.79111
1004.76732,0.79550
1002.83879,0.79481
1000.91025,0.78923
998.98172,0.78126
997.05318,0.77588
995.12464,0.77597
993.19611,0.77950
991.26757,0.78445
989.33904,0.79049
987.41050,0.79550
985.48196,0.79662
983.55343,0.79324
981.62489,0.78627
979.69635,0.77609
977.76782,0.76278
975.83928,0.74770
973.91075,0.73338
971.98221,0.72141
970.05367,0.71235
968.12514,0.70695
966.19660,0.70587
964.26807,0.70916
962.33953,0.71611
960.41099,0.72554
958.48246,0.73546
956.55392,0.74308
954.62538,0.74739
952.69685,0.75156
950.76831,0.75834
948.83978,0.76425
946.91124,0.76451
944.98270,0.76270
943.05417,0.76790
941.12563,0.78279
939.19710,0.80122
937.26856,0.81623
935.34002,0.82332
933.41149,0.81972
931.48295,0.81106
929.55442,0.81115
927.62588,0.82427
925.69734,0.84083
923.76881,0.85313
921.84027,0.86100
919.91173,0.86633
917.98320,0.87042
916.05466,0.87366
914.12613,0.87593
912.19759,0.87706
910.26905,0.87760
908.34052,0.87876
906.41198,0.88108
904.48345,0.88354
902.55491,0.88440
900.62637,0.88148
898.69784,0.87270
896.76930,0.86037
894.84076,0.85262
892.91223,0.85386
890.98369,0.85904
889.05516,0.86321
887.12662,0.86750
885.19808,0.87338
883.26955,0.87997
881.34101,0.88647
879.41248,0.89252
877.48394,0.89725
875.55540,0.90026
873.62687,0.90229
871.69833,0.90414
869.76980,0.90563
867.84126,0.90566
865.91272,0.90234
863.98419,0.89182
862.05565,0.86733
860.12711,0.82474
858.19858,0.77784
856.27004,0.75519
854.34151,0.76683
852.41297,0.79243
850.48443,0.81040
848.55590,0.82043
846.62736,0.83221
844.69883,0.84685
842.77029,0.85899
840.84175,0.86671
838.91322,0.87096
836.98468,0.87227
835.05614,0.87107
833.12761,0.86834
831.19907,0.86544
829.27054,0.86335
827.34200,0.86211
825.41346,0.86107
823.48493,0.86013
821.55639,0.86019
819.62786,0.86189
817.69932,0.86505
815.77078,0.86956
813.84225,0.87541
811.91371,0.88187
809.98517,0.88771
808.05664,0.89189
806.12810,0.89417
804.19957,0.89504
802.27103,0.89427
800.34249,0.88739
798.41396,0.86547
796.48542,0.83449
794.55689,0.82111
792.62835,0.83380
790.69981,0.85318
788.77128,0.86667
786.84274,0.87571
784.91421,0.88241
782.98567,0.88740
781.05713,0.89109
779.12860,0.89345
777.20006,0.89446
775.27152,0.89458
773.34299,0.89428
771.41445,0.89359
769.48592,0.89301
767.55738,0.89332
765.62884,0.89376
763.70031,0.89051
761.77177,0.87860
759.84324,0.86173
757.91470,0.85389
755.98616,0.85979
754.05763,0.86897
752.12909,0.87386
750.20055,0.87509
748.27202,0.87399
746.34348,0.87027
744.41495,0.86196
742.48641,0.84254
740.55787,0.79961
738.62934,0.73285
736.70080,0.67410
734.77227,0.65901
732.84373,0.68383
730.91519,0.71846
728.98666,0.74370
727.05812,0.75689
725.12959,0.76151
723.20105,0.76179
721.27251,0.76128
719.34398,0.76210
717.41544,0.76450
715.48690,0.76711
713.55837,0.76656
711.62983,0.75613
709.70130,0.73203
707.77276,0.70470
705.84422,0.68967
703.91569,0.68603
701.98715,0.68512
700.05862,0.68911
698.13008,0.70223
696.20154,0.72117
694.27301,0.74001
692.34447,0.75552
690.41593,0.76838
688.48740,0.78006
686.55886,0.79037
684.63033,0.79900
682.70179,0.80649
680.77325,0.81316
678.84472,0.81881
676.91618,0.82315
674.98765,0.82597
673.05911,0.82737
671.13057,0.82783
669.20204,0.82886
667.27350,0.83285
665.34497,0.83805
663.41643,0.84402
661.48789,0.85085
659.55936,0.85322
657.63082,0.84552
655.70228,0.83693
653.77375,0.83792
651.84521,0.82785
649.91668,0.78555
647.98814,0.74316
646.05960,0.74234
644.13107,0.77256
642.20253,0.80328
640.27400,0.82318
638.34546,0.83229
636.41692,0.82758
634.48839,0.80941
632.55985,0.79379
630.63131,0.79472
628.70278,0.80696
626.77424,0.82149
624.84571,0.83498
622.91717,0.84515
620.98863,0.85070
619.06010,0.85004
617.13156,0.84457
615.20303,0.84286
613.27449,0.84740
611.34595,0.85149
609.41742,0.85223
607.48888,0.85114
605.56035,0.84875
603.63181,0.84284
601.70327,0.82741
599.77474,0.79924
597.84620,0.77009
595.91766,0.75788
593.98913,0.76642
592.06059,0.78630
590.13206,0.80582
588.20352,0.81983
586.27498,0.82993
584.34645,0.83787
582.41791,0.84404
580.48938,0.84867
578.56084,0.85175
576.63230,0.85345
574.70377,0.85384
572.77523,0.85211
570.84669,0.84602
568.91816,0.83191
566.98962,0.80722
565.06109,0.77586
563.13255,0.74986
561.20401,0.74226
559.27548,0.75449
557.34694,0.77551
555.41841,0.79515
553.48987,0.81008
551.56133,0.82100
549.63280,0.82877
547.70426,0.83332
545.77573,0.83527
543.84719,0.83629
541.91865,0.83779
539.99012,0.84004
538.06158,0.84247
536.13304,0.84467
534.20451,0.84679
532.27597,0.84894
530.34744,0.85069
528.41890,0.85211
526.49036,0.85388
524.56183,0.85575
522.63329,0.85690
520.70476,0.85754
518.77622,0.85803
516.84768,0.85819
514.91915,0.85810
512.99061,0.85761
511.06207,0.85489
509.13354,0.84610
507.20500,0.82804
505.27647,0.80740
503.34793,0.79349
501.41939,0.77981
499.49086,0.75857
497.56232,0.74239
495.63379,0.74637
493.70525,0.76744
491.77671,0.79062
489.84818,0.80616
487.91964,0.81392
485.99110,0.81761
484.06257,0.82095
482.13403,0.82519
480.20550,0.82891
478.27696,0.83211
476.34842,0.83532
474.41989,0.83840
472.49135,0.84069
470.56282,0.83697
468.63428,0.82248
466.70574,0.80604
464.77721,0.80387
462.84867,0.81598
460.92014,0.82915
458.99160,0.83717
457.06306,0.84234
455.13453,0.84542
453.20599,0.84620
451.27745,0.84543
449.34892,0.84509
447.42038,0.84663
445.49185,0.84950
443.56331,0.85291
441.63477,0.85584
439.70624,0.85732
437.77770,0.85790
435.84917,0.85721
433.92063,0.85475
431.99209,0.85205
430.06356,0.85096
428.13502,0.85147
426.20648,0.85259
424.27795,0.85480
422.34941,0.85811
420.42088,0.86139
418.49234,0.86307
416.56380,0.86197
414.63527,0.86103
412.70673,0.86164
410.77820,0.86372
408.84966,0.86502
406.92112,0.86220
404.99259,0.85352
403.06405,0.84182
401.13552,0.83425
399.20698,0.83770
