3997.85540,0.99139
3995.92686,0.99133
3993.99833,0.99127
3992.06979,0.99117
3990.14125,0.99110
3988.21272,0.99111
3986.28418,0.99118
3984.35565,0.99128
3982.42711,0.99130
3980.49857,0.99130
3978.57004,0.99141
3976.64150,0.99163
3974.71297,0.99192
3972.78443,0.99214
3970.85589,0.99225
3968.92736,0.99235
3966.99882,0.99237
3965.07029,0.99231
3963.14175,0.99231
3961.21321,0.99240
3959.28468,0.99248
3957.35614,0.99253
3955.42760,0.99256
3953.49907,0.99253
3951.57053,0.99251
3949.64200,0.99260
3947.71346,0.99270
3945.78492,0.99266
3943.85639,0.99256
3941.92785,0.99242
3939.99932,0.99234
3938.07078,0.99235
3936.14224,0.99241
3934.21371,0.99248
3932.28517,0.99257
3930.35663,0.99269
3928.42810,0.99271
3926.49956,0.99255
3924.57103,0.99234
3922.64249,0.99226
3920.71395,0.99216
3918.78542,0.99201
3916.85688,0.99193
3914.92835,0.99193
3912.99981,0.99191
3911.07127,0.99183
3909.14274,0.99167
3907.21420,0.99146
3905.28566,0.99129
3903.35713,0.99115
3901.42859,0.99109
3899.50006,0.99128
3897.57152,0.99159
3895.64298,0.99179
3893.71445,0.99191
3891.78591,0.99213
3889.85738,0.99240
3887.92884,0.99249
3886.00030,0.99249
3884.07177,0.99251
3882.14323,0.99258
3880.21470,0.99281
3878.28616,0.99288
3876.35762,0.99275
3874.42909,0.99273
3872.50055,0.99283
3870.57201,0.99279
3868.64348,0.99251
3866.71494,0.99226
3864.78641,0.99231
3862.85787,0.99269
3860.92933,0.99292
3859.00080,0.99292
3857.07226,0.99291
3855.14373,0.99310
3853.21519,0.99332
3851.28665,0.99311
3849.35812,0.99296
3847.42958,0.99288
3845.50104,0.99283
3843.57251,0.99282
3841.64397,0.99281
3839.71544,0.99284
3837.78690,0.99293
3835.85836,0.99287
3833.92983,0.99292
3832.00129,0.99307
3830.07276,0.99301
3828.14422,0.99282
3826.21568,0.99277
3824.28715,0.99283
3822.35861,0.99292
3820.43008,0.99309
3818.50154,0.99305
3816.57300,0.99284
3814.64447,0.99273
3812.71593,0.99268
3810.78739,0.99258
3808.85886,0.99248
3806.93032,0.99258
3805.00179,0.99270
3803.07325,0.99270
3801.14471,0.99293
3799.21618,0.99310
3797.28764,0.99297
3795.35911,0.99285
3793.43057,0.99277
3791.50203,0.99266
3789.57350,0.99259
3787.64496,0.99261
3785.71642,0.99274
3783.78789,0.99292
3781.85935,0.99298
3779.93082,0.99302
3778.00228,0.99304
3776.07374,0.99289
3774.14521,0.99264
3772.21667,0.99244
3770.28814,0.99246
3768.35960,0.99278
3766.43106,0.99304
3764.50253,0.99301
3762.57399,0.99284
3760.64546,0.99272
3758.71692,0.99278
3756.78838,0.99291
3754.85985,0.99296
3752.93131,0.99290
3751.00277,0.99276
3749.07424,0.99273
3747.14570,0.99281
3745.21717,0.99304
3743.28863,0.99322
3741.36009,0.99305
3739.43156,0.99283
3737.50302,0.99281
3735.57449,0.99296
3733.64595,0.99295
3731.71741,0.99285
3729.78888,0.99277
3727.86034,0.99264
3725.93180,0.99254
3724.00327,0.99261
3722.07473,0.99270
3720.14620,0.99269
3718.21766,0.99262
3716.28912,0.99254
3714.36059,0.99242
3712.43205,0.99221
3710.50352,0.99210
3708.57498,0.99224
3706.64644,0.99231
3704.71791,0.99224
3702.78937,0.99218
3700.86084,0.99228
3698.93230,0.99237
3697.00376,0.99234
3695.07523,0.99219
3693.14669,0.99204
3691.21815,0.99209
3689.28962,0.99220
3687.36108,0.99195
3685.43255,0.99163
3683.50401,0.99137
3681.57547,0.99117
3679.64694,0.99100
3677.71840,0.99074
3675.78987,0.99048
3673.86133,0.99058
3671.93279,0.99071
3670.00426,0.99063
3668.07572,0.99040
3666.14718,0.99020
3664.21865,0.99002
3662.29011,0.98986
3660.36158,0.98964
3658.43304,0.98939
3656.50450,0.98926
3654.57597,0.98922
3652.64743,0.98905
3650.71890,0.98881
3648.79036,0.98881
3646.86182,0.98896
3644.93329,0.98903
3643.00475,0.98906
3641.07622,0.98904
3639.14768,0.98899
3637.21914,0.98890
3635.29061,0.98882
3633.36207,0.98885
3631.43353,0.98893
3629.50500,0.98909
3627.57646,0.98921
3625.64793,0.98909
3623.71939,0.98888
3621.79085,0.98867
3619.86232,0.98868
3617.93378,0.98884
3616.00525,0.98869
3614.07671,0.98850
3612.14817,0.98857
3610.21964,0.98870
3608.29110,0.98883
3606.36256,0.98896
3604.43403,0.98888
3602.50549,0.98870
3600.57696,0.98873
3598.64842,0.98892
3596.71988,0.98900
3594.79135,0.98906
3592.86281,0.98909
3590.93428,0.98891
3589.00574,0.98868
3587.07720,0.98875
3585.14867,0.98893
3583.22013,0.98890
3581.29160,0.98887
3579.36306,0.98888
3577.43452,0.98881
3575.50599,0.98871
3573.57745,0.98872
3571.64891,0.98874
3569.72038,0.98858
3567.79184,0.98830
3565.86331,0.98832
3563.93477,0.98854
3562.00623,0.98857
3560.07770,0.98852
3558.14916,0.98850
3556.22063,0.98845
3554.29209,0.98836
3552.36355,0.98831
3550.43502,0.98834
3548.50648,0.98833
3546.57794,0.98828
3544.64941,0.98831
3542.72087,0.98838
3540.79234,0.98839
3538.86380,0.98830
3536.93526,0.98813
3535.00673,0.98799
3533.07819,0.98798
3531.14966,0.98810
3529.22112,0.98826
3527.29258,0.98830
3525.36405,0.98827
3523.43551,0.98837
3521.50697,0.98854
3519.57844,0.98862
3517.64990,0.98865
3515.72137,0.98872
3513.79283,0.98878
3511.86429,0.98884
3509.93576,0.98893
3508.00722,0.98909
3506.07869,0.98925
3504.15015,0.98928
3502.22161,0.98923
3500.29308,0.98930
3498.36454,0.98944
3496.43601,0.98957
3494.50747,0.98975
3492.57893,0.98989
3490.65040,0.98988
3488.72186,0.98979
3486.79332,0.98981
3484.86479,0.98998
3482.93625,0.99017
3481.00772,0.99031
3479.07918,0.99048
3477.15064,0.99069
3475.22211,0.99089
3473.29357,0.99102
3471.36504,0.99109
3469.43650,0.99111
3467.50796,0.99114
3465.57943,0.99117
3463.65089,0.99122
3461.72235,0.99131
3459.79382,0.99134
3457.86528,0.99131
3455.93675,0.99134
3454.00821,0.99136
3452.07967,0.99135
3450.15114,0.99138
3448.22260,0.99149
3446.29407,0.99156
3444.36553,0.99146
3442.43699,0.99133
3440.50846,0.99134
3438.57992,0.99146
3436.65139,0.99151
3434.72285,0.99143
3432.79431,0.99136
3430.86578,0.99138
3428.93724,0.99140
3427.00870,0.99129
3425.08017,0.99107
3423.15163,0.99089
3421.22310,0.99075
3419.29456,0.99059
3417.36602,0.99038
3415.43749,0.99017
3413.50895,0.98996
3411.58042,0.98963
3409.65188,0.98922
3407.72334,0.98882
3405.79481,0.98840
3403.86627,0.98786
3401.93773,0.98722
3400.00920,0.98652
3398.08066,0.98575
3396.15213,0.98495
3394.22359,0.98407
3392.29505,0.98303
3390.36652,0.98179
3388.43798,0.98044
3386.50945,0.97905
3384.58091,0.97763
3382.65237,0.97609
3380.72384,0.97447
3378.79530,0.97278
3376.86677,0.97094
3374.93823,0.96906
3373.00969,0.96731
3371.08116,0.96560
3369.15262,0.96380
3367.22408,0.96198
3365.29555,0.96021
3363.36701,0.95849
3361.43848,0.95681
3359.50994,0.95515
3357.58140,0.95345
3355.65287,0.95175
3353.72433,0.95018
3351.79580,0.94869
3349.86726,0.94718
3347.93872,0.94570
3346.01019,0.94426
3344.08165,0.94274
3342.15311,0.94120
3340.22458,0.93978
3338.29604,0.93842
3336.36751,0.93704
3334.43897,0.93558
3332.51043,0.93401
3330.58190,0.93235
3328.65336,0.93063
3326.72483,0.92892
3324.79629,0.92720
3322.86775,0.92545
3320.93922,0.92370
3319.01068,0.92201
3317.08215,0.92035
3315.15361,0.91865
3313.22507,0.91686
3311.29654,0.91504
3309.36800,0.91317
3307.43946,0.91123
3305.51093,0.90936
3303.58239,0.90760
3301.65386,0.90584
3299.72532,0.90395
3297.79678,0.90198
3295.86825,0.90006
3293.93971,0.89820
3292.01118,0.89637
3290.08264,0.89455
3288.15410,0.89275
3286.22557,0.89101
3284.29703,0.88932
3282.36849,0.88758
3280.43996,0.88585
3278.51142,0.88426
3276.58289,0.88271
3274.65435,0.88117
3272.72581,0.87972
3270.79728,0.87839
3268.86874,0.87719
3266.94021,0.87610
3265.01167,0.87508
3263.08313,0.87416
3261.15460,0.87334
3259.22606,0.87254
3257.29753,0.87182
3255.36899,0.87132
3253.44045,0.87100
3251.51192,0.87078
3249.58338,0.87068
3247.65484,0.87075
3245.72631,0.87101
3243.79777,0.87144
3241.86924,0.87201
3239.94070,0.87274
3238.01216,0.87365
3236.08363,0.87472
3234.15509,0.87592
3232.22656,0.87725
3230.29802,0.87878
3228.36948,0.88051
3226.44095,0.88234
3224.51241,0.88412
3222.58387,0.88589
3220.65534,0.88782
3218.72680,0.88995
3216.79827,0.89214
3214.86973,0.89433
3212.94119,0.89653
3211.01266,0.89865
3209.08412,0.90078
3207.15559,0.90306
3205.22705,0.90543
3203.29851,0.90778
3201.36998,0.91007
3199.44144,0.91240
3197.51290,0.91480
3195.58437,0.91712
3193.65583,0.91932
3191.72730,0.92147
3189.79876,0.92356
3187.87022,0.92564
3185.94169,0.92781
3184.01315,0.92996
3182.08462,0.93189
3180.15608,0.93368
3178.22754,0.93554
3176.29901,0.93740
3174.37047,0.93915
3172.44194,0.94091
3170.51340,0.94264
3168.58486,0.94422
3166.65633,0.94562
3164.72779,0.94685
3162.79925,0.94794
3160.87072,0.94904
3158.94218,0.95028
3157.01365,0.95165
3155.08511,0.95306
3153.15657,0.95447
3151.22804,0.95580
3149.29950,0.95701
3147.37097,0.95814
3145.44243,0.95919
3143.51389,0.96007
3141.58536,0.96087
3139.65682,0.96168
3137.72828,0.96248
3135.79975,0.96322
3133.87121,0.96390
3131.94268,0.96454
3130.01414,0.96507
3128.08560,0.96554
3126.15707,0.96600
3124.22853,0.96637
3122.30000,0.96666
3120.37146,0.96697
3118.44292,0.96734
3116.51439,0.96772
3114.58585,0.96805
3112.65732,0.96824
3110.72878,0.96837
3108.80024,0.96855
3106.87171,0.96883
3104.94317,0.96913
3103.01463,0.96935
3101.08610,0.96945
3099.15756,0.96941
3097.22903,0.96920
3095.30049,0.96880
3093.37195,0.96827
3091.44342,0.96772
3089.51488,0.96719
3087.58635,0.96676
3085.65781,0.96659
3083.72927,0.96663
3081.80074,0.96664
3079.87220,0.96637
3077.94366,0.96567
3076.01513,0.96459
3074.08659,0.96332
3072.15806,0.96208
3070.22952,0.96091
3068.30098,0.95984
3066.37245,0.95884
3064.44391,0.95789
3062.51538,0.95702
3060.58684,0.95644
3058.65830,0.95645
3056.72977,0.95708
3054.80123,0.95803
3052.87270,0.95909
3050.94416,0.96005
3049.01562,0.96067
3047.08709,0.96112
3045.15855,0.96152
3043.23001,0.96166
3041.30148,0.96135
3039.37294,0.96068
3037.44441,0.96005
3035.51587,0.95966
3033.58733,0.95895
3031.65880,0.95765
3029.73026,0.95644
3027.80173,0.95627
3025.87319,0.95741
3023.94465,0.95913
3022.01612,0.96075
3020.08758,0.96227
3018.15904,0.96375
3016.23051,0.96518
3014.30197,0.96674
3012.37344,0.96839
3010.44490,0.96977
3008.51636,0.97063
3006.58783,0.97126
3004.65929,0.97192
3002.73076,0.97251
3000.80222,0.97313
2998.87368,0.97389
2996.94515,0.97438
2995.01661,0.97451
2993.08808,0.97444
2991.15954,0.97376
2989.23100,0.97235
2987.30247,0.97089
2985.37393,0.96996
2983.44539,0.96949
2981.51686,0.96872
2979.58832,0.96674
2977.65979,0.96364
2975.73125,0.96011
2973.80271,0.95604
2971.87418,0.95103
2969.94564,0.94557
2968.01711,0.94041
2966.08857,0.93594
2964.16003,0.93232
2962.23150,0.92911
2960.30296,0.92612
2958.37442,0.92417
2956.44589,0.92398
2954.51735,0.92547
2952.58882,0.92776
2950.66028,0.92987
2948.73174,0.93160
2946.80321,0.93268
2944.87467,0.93242
2942.94614,0.93054
2941.01760,0.92753
2939.08906,0.92431
2937.16053,0.92163
2935.23199,0.91973
2933.30346,0.91876
2931.37492,0.91871
2929.44638,0.91933
2927.51785,0.92038
2925.58931,0.92198
2923.66077,0.92426
2921.73224,0.92713
2919.80370,0.93031
2917.87517,0.93343
2915.94663,0.93623
2914.01809,0.93866
2912.08956,0.94078
2910.16102,0.94269
2908.23249,0.94454
2906.30395,0.94651
2904.37541,0.94854
2902.44688,0.95047
2900.51834,0.95226
2898.58980,0.95406
2896.66127,0.95580
2894.73273,0.95719
2892.80420,0.95807
2890.87566,0.95856
2888.94712,0.95876
2887.01859,0.95862
2885.09005,0.95816
2883.16152,0.95730
2881.23298,0.95584
2879.30444,0.95378
2877.37591,0.95158
2875.44737,0.94980
2873.51883,0.94857
2871.59030,0.94786
2869.66176,0.94767
2867.73323,0.94794
2865.80469,0.94819
2863.87615,0.94803
2861.94762,0.94755
2860.01908,0.94696
2858.09055,0.94642
2856.16201,0.94622
2854.23347,0.94666
2852.30494,0.94800
2850.37640,0.95037
2848.44787,0.95348
2846.51933,0.95663
2844.59079,0.95948
2842.66226,0.96208
2840.73372,0.96439
2838.80518,0.96624
2836.87665,0.96749
2834.94811,0.96824
2833.01958,0.96875
2831.09104,0.96916
2829.16250,0.96960
2827.23397,0.97008
2825.30543,0.97061
2823.37690,0.97119
2821.44836,0.97181
2819.51982,0.97244
2817.59129,0.97298
2815.66275,0.97350
2813.73421,0.97415
2811.80568,0.97487
2809.87714,0.97549
2807.94861,0.97586
2806.02007,0.97608
2804.09153,0.97633
2802.16300,0.97671
2800.23446,0.97724
2798.30593,0.97773
2796.37739,0.97797
2794.44885,0.97811
2792.52032,0.97843
2790.59178,0.97884
2788.66325,0.97906
2786.73471,0.97911
2784.80617,0.97922
2782.87764,0.97946
2780.94910,0.97970
2779.02056,0.97995
2777.09203,0.98037
2775.16349,0.98081
2773.23496,0.98097
2771.30642,0.98088
2769.37788,0.98085
2767.44935,0.98097
2765.52081,0.98110
2763.59228,0.98118
2761.66374,0.98131
2759.73520,0.98151
2757.80667,0.98171
2755.87813,0.98185
2753.94959,0.98199
2752.02106,0.98228
2750.09252,0.98267
2748.16399,0.98290
2746.23545,0.98288
2744.30691,0.98279
2742.37838,0.98278
2740.44984,0.98292
2738.52131,0.98313
2736.59277,0.98328
2734.66423,0.98332
2732.73570,0.98339
2730.80716,0.98353
2728.87863,0.98376
2726.95009,0.98401
2725.02155,0.98415
2723.09302,0.98419
2721.16448,0.98416
2719.23594,0.98410
2717.30741,0.98410
2715.37887,0.98414
2713.45034,0.98422
2711.52180,0.98440
2709.59326,0.98462
2707.66473,0.98475
2705.73619,0.98482
2703.80766,0.98490
2701.87912,0.98498
2699.95058,0.98507
2698.02205,0.98518
2696.09351,0.98525
2694.16497,0.98532
2692.23644,0.98537
2690.30790,0.98538
2688.37937,0.98537
2686.45083,0.98538
2684.52229,0.98542
2682.59376,0.98551
2680.66522,0.98562
2678.73669,0.98564
2676.80815,0.98549
2674.87961,0.98526
2672.95108,0.98505
2671.02254,0.98484
2669.09401,0.98468
2667.16547,0.98455
2665.23693,0.98441
2663.30840,0.98428
2661.37986,0.98424
2659.45132,0.98419
2657.52279,0.98405
2655.59425,0.98390
2653.66572,0.98385
2651.73718,0.98389
2649.80864,0.98398
2647.88011,0.98413
2645.95157,0.98428
2644.02304,0.98449
2642.09450,0.98486
2640.16596,0.98528
2638.23743,0.98554
2636.30889,0.98567
2634.38035,0.98580
2632.45182,0.98597
2630.52328,0.98613
2628.59475,0.98632
2626.66621,0.98652
2624.73767,0.98661
2622.80914,0.98657
2620.88060,0.98657
2618.95207,0.98682
2617.02353,0.98726
2615.09499,0.98765
2613.16646,0.98792
2611.23792,0.98822
2609.30939,0.98852
2607.38085,0.98867
2605.45231,0.98870
2603.52378,0.98877
2601.59524,0.98893
2599.66670,0.98908
2597.73817,0.98920
2595.80963,0.98934
2593.88110,0.98943
2591.95256,0.98941
2590.02402,0.98923
2588.09549,0.98904
2586.16695,0.98897
2584.23842,0.98893
2582.30988,0.98884
2580.38134,0.98873
2578.45281,0.98873
2576.52427,0.98890
2574.59573,0.98917
2572.66720,0.98937
2570.73866,0.98948
2568.81013,0.98956
2566.88159,0.98958
2564.95305,0.98954
2563.02452,0.98959
2561.09598,0.98976
2559.16745,0.98992
2557.23891,0.99001
2555.31037,0.99006
2553.38184,0.99012
2551.45330,0.99025
2549.52476,0.99034
2547.59623,0.99034
2545.66769,0.99041
2543.73916,0.99061
2541.81062,0.99087
2539.88208,0.99113
2537.95355,0.99135
2536.02501,0.99143
2534.09648,0.99139
2532.16794,0.99126
2530.23940,0.99109
2528.31087,0.99093
2526.38233,0.99079
2524.45380,0.99065
2522.52526,0.99046
2520.59672,0.99020
2518.66819,0.98999
2516.73965,0.98982
2514.81111,0.98957
2512.88258,0.98919
2510.95404,0.98882
2509.02551,0.98862
2507.09697,0.98863
2505.16843,0.98870
2503.23990,0.98869
2501.31136,0.98862
2499.38283,0.98857
2497.45429,0.98867
2495.52575,0.98886
2493.59722,0.98900
2491.66868,0.98909
2489.74014,0.98925
2487.81161,0.98931
2485.88307,0.98918
2483.95454,0.98911
2482.02600,0.98919
2480.09746,0.98915
2478.16893,0.98895
2476.24039,0.98892
2474.31186,0.98919
2472.38332,0.98945
2470.45478,0.98953
2468.52625,0.98949
2466.59771,0.98946
2464.66918,0.98952
2462.74064,0.98961
2460.81210,0.98970
2458.88357,0.98975
2456.95503,0.98971
2455.02649,0.98956
2453.09796,0.98937
2451.16942,0.98919
2449.24089,0.98914
2447.31235,0.98924
2445.38381,0.98941
2443.45528,0.98958
2441.52674,0.98977
2439.59821,0.99004
2437.66967,0.99041
2435.74113,0.99080
2433.81260,0.99115
2431.88406,0.99141
2429.95552,0.99165
2428.02699,0.99185
2426.09845,0.99188
2424.16992,0.99174
2422.24138,0.99165
2420.31284,0.99161
2418.38431,0.99146
2416.45577,0.99123
2414.52724,0.99108
2412.59870,0.99099
2410.67016,0.99085
2408.74163,0.99069
2406.81309,0.99066
2404.88456,0.99072
2402.95602,0.99073
2401.02748,0.99068
2399.09895,0.99064
2397.17041,0.99061
2395.24187,0.99058
2393.31334,0.99048
2391.38480,0.99028
2389.45627,0.99012
2387.52773,0.99005
2385.59919,0.98997
2383.67066,0.98982
2381.74212,0.98964
2379.81359,0.98944
2377.88505,0.98935
2375.95651,0.98947
2374.02798,0.98956
2372.09944,0.98946
2370.17090,0.98948
2368.24237,0.98971
2366.31383,0.98970
2364.38530,0.98946
2362.45676,0.98957
2360.52822,0.99004
2358.59969,0.99045
2356.67115,0.99076
2354.74262,0.99108
2352.81408,0.99118
2350.88554,0.99101
2348.95701,0.99073
2347.02847,0.99032
2345.09994,0.98989
2343.17140,0.98968
2341.24286,0.98970
2339.31433,0.98983
2337.38579,0.98992
2335.45725,0.98982
2333.52872,0.98954
2331.60018,0.98909
2329.67165,0.98880
2327.74311,0.98890
2325.81457,0.98902
2323.88604,0.98879
2321.95750,0.98838
2320.02897,0.98810
2318.10043,0.98806
2316.17189,0.98822
2314.24336,0.98840
2312.31482,0.98837
2310.38628,0.98813
2308.45775,0.98795
2306.52921,0.98794
2304.60068,0.98787
2302.67214,0.98768
2300.74360,0.98763
2298.81507,0.98794
2296.88653,0.98843
2294.95800,0.98891
2293.02946,0.98941
2291.10092,0.98986
2289.17239,0.99008
2287.24385,0.99027
2285.31532,0.99066
2283.38678,0.99107
2281.45824,0.99134
2279.52971,0.99160
2277.60117,0.99193
2275.67263,0.99229
2273.74410,0.99254
2271.81556,0.99261
2269.88703,0.99266
2267.95849,0.99266
2266.02995,0.99250
2264.10142,0.99238
2262.17288,0.99263
2260.24435,0.99297
2258.31581,0.99296
2256.38727,0.99271
2254.45874,0.99276
2252.53020,0.99317
2250.60166,0.99354
2248.67313,0.99367
2246.74459,0.99368
2244.81606,0.99379
2242.88752,0.99419
2240.95898,0.99480
2239.03045,0.99530
2237.10191,0.99554
2235.17338,0.99553
2233.24484,0.99547
2231.31630,0.99561
2229.38777,0.99575
2227.45923,0.99568
2225.53070,0.99552
2223.60216,0.99536
2221.67362,0.99519
2219.74509,0.99511
2217.81655,0.99511
2215.88801,0.99496
2213.95948,0.99496
2212.03094,0.99535
2210.10241,0.99555
2208.17387,0.99532
2206.24533,0.99507
2204.31680,0.99504
2202.38826,0.99514
2200.45973,0.99521
2198.53119,0.99511
2196.60265,0.99485
2194.67412,0.99458
2192.74558,0.99456
2190.81704,0.99489
2188.88851,0.99527
2186.95997,0.99553
2185.03144,0.99578
2183.10290,0.99608
2181.17436,0.99621
2179.24583,0.99625
2177.31729,0.99637
2175.38876,0.99633
2173.46022,0.99616
2171.53168,0.99600
2169.60315,0.99605
2167.67461,0.99636
2165.74607,0.99658
2163.81754,0.99681
2161.88900,0.99717
2159.96047,0.99713
2158.03193,0.99660
2156.10339,0.99639
2154.17486,0.99672
2152.24632,0.99692
2150.31779,0.99657
2148.38925,0.99602
2146.46071,0.99585
2144.53218,0.99598
2142.60364,0.99597
2140.67511,0.99559
2138.74657,0.99507
2136.81803,0.99472
2134.88950,0.99458
2132.96096,0.99462
2131.03242,0.99471
2129.10389,0.99459
2127.17535,0.99429
2125.24682,0.99414
2123.31828,0.99421
2121.38974,0.99425
2119.46121,0.99428
2117.53267,0.99450
2115.60414,0.99477
2113.67560,0.99490
2111.74706,0.99485
2109.81853,0.99475
2107.88999,0.99467
2105.96145,0.99468
2104.03292,0.99472
2102.10438,0.99480
2100.17585,0.99492
2098.24731,0.99495
2096.31877,0.99483
2094.39024,0.99481
2092.46170,0.99511
2090.53317,0.99551
2088.60463,0.99566
2086.67609,0.99556
2084.74756,0.99543
2082.81902,0.99533
2080.89049,0.99516
2078.96195,0.99513
2077.03341,0.99537
2075.10488,0.99552
2073.17634,0.99541
2071.24780,0.99533
2069.31927,0.99531
2067.39073,0.99526
2065.46220,0.99544
2063.53366,0.99588
2061.60512,0.99623
2059.67659,0.99634
2057.74805,0.99632
2055.81952,0.99616
2053.89098,0.99587
2051.96244,0.99574
2050.03391,0.99596
2048.10537,0.99629
2046.17683,0.99656
2044.24830,0.99689
2042.31976,0.99727
2040.39123,0.99754
2038.46269,0.99759
2036.53415,0.99755
2034.60562,0.99749
2032.67708,0.99730
2030.74855,0.99725
2028.82001,0.99755
2026.89147,0.99788
2024.96294,0.99806
2023.03440,0.99830
2021.10587,0.99857
2019.17733,0.99881
2017.24879,0.99914
2015.32026,0.99957
2013.39172,0.99982
2011.46318,0.99984
2009.53465,0.99979
2007.60611,0.99976
2005.67758,0.99989
2003.74904,1.00004
2001.82050,0.99989
1999.89197,0.99963
1997.96343,0.99936
1996.03490,0.99886
1994.10636,0.99825
1992.17782,0.99795
1990.24929,0.99791
1988.32075,0.99774
1986.39221,0.99751
1984.46368,0.99729
1982.53514,0.99718
1980.60661,0.99723
1978.67807,0.99734
1976.74953,0.99727
1974.82100,0.99690
1972.89246,0.99636
1970.96393,0.99575
1969.03539,0.99527
1967.10685,0.99495
1965.17832,0.99462
1963.24978,0.99418
1961.32125,0.99398
1959.39271,0.99402
1957.46417,0.99395
1955.53564,0.99403
1953.60710,0.99446
1951.67856,0.99508
1949.75003,0.99565
1947.82149,0.99619
1945.89296,0.99678
1943.96442,0.99727
1942.03588,0.99731
1940.10735,0.99702
1938.17881,0.99691
1936.25028,0.99694
1934.32174,0.99678
1932.39320,0.99637
1930.46467,0.99589
1928.53613,0.99559
1926.60759,0.99526
1924.67906,0.99479
1922.75052,0.99426
1920.82199,0.99392
1918.89345,0.99374
1916.96491,0.99345
1915.03638,0.99301
1913.10784,0.99253
1911.17931,0.99206
1909.25077,0.99151
1907.32223,0.99098
1905.39370,0.99065
1903.46516,0.99041
1901.53663,0.99018
1899.60809,0.98994
1897.67955,0.98973
1895.75102,0.98955
1893.82248,0.98940
1891.89394,0.98942
1889.96541,0.98970
1888.03687,0.99014
1886.10834,0.99066
1884.17980,0.99137
1882.25126,0.99204
1880.32273,0.99247
1878.39419,0.99278
1876.46566,0.99308
1874.53712,0.99334
1872.60858,0.99349
1870.68005,0.99367
1868.75151,0.99386
1866.82297,0.99392
1864.89444,0.99386
1862.96590,0.99377
1861.03737,0.99365
1859.10883,0.99350
1857.18029,0.99344
1855.25176,0.99344
1853.32322,0.99341
1851.39469,0.99331
1849.46615,0.99318
1847.53761,0.99306
1845.60908,0.99289
1843.68054,0.99262
1841.75200,0.99224
1839.82347,0.99194
1837.89493,0.99172
1835.96640,0.99147
1834.03786,0.99119
1832.10932,0.99090
1830.18079,0.99053
1828.25225,0.99013
1826.32372,0.98989
1824.39518,0.98964
1822.46664,0.98928
1820.53811,0.98892
1818.60957,0.98864
1816.68104,0.98850
1814.75250,0.98846
1812.82396,0.98863
1810.89543,0.98894
1808.96689,0.98920
1807.03835,0.98944
1805.10982,0.98971
1803.18128,0.99002
1801.25275,0.99039
1799.32421,0.99081
1797.39567,0.99102
1795.46714,0.99107
1793.53860,0.99105
1791.61007,0.99074
1789.68153,0.99008
1787.75299,0.98951
1785.82446,0.98906
1783.89592,0.98863
1781.96738,0.98814
1780.03885,0.98752
1778.11031,0.98696
1776.18178,0.98668
1774.25324,0.98660
1772.32470,0.98657
1770.39617,0.98648
1768.46763,0.98644
1766.53910,0.98645
1764.61056,0.98649
1762.68202,0.98663
1760.75349,0.98690
1758.82495,0.98718
1756.89642,0.98745
1754.96788,0.98769
1753.03934,0.98793
1751.11081,0.98829
1749.18227,0.98857
1747.25373,0.98854
1745.32520,0.98845
1743.39666,0.98841
1741.46813,0.98838
1739.53959,0.98833
1737.61105,0.98828
1735.68252,0.98828
1733.75398,0.98816
1731.82545,0.98766
1729.89691,0.98716
1727.96837,0.98678
1726.03984,0.98640
1724.11130,0.98600
1722.18276,0.98566
1720.25423,0.98548
1718.32569,0.98550
1716.39716,0.98562
1714.46862,0.98552
1712.54008,0.98541
1710.61155,0.98539
1708.68301,0.98547
1706.75448,0.98575
1704.82594,0.98604
1702.89740,0.98625
1700.96887,0.98661
1699.04033,0.98682
1697.11180,0.98646
1695.18326,0.98603
1693.25472,0.98586
1691.32619,0.98582
1689.39765,0.98588
1687.46911,0.98595
1685.54058,0.98609
1683.61204,0.98617
1681.68351,0.98575
1679.75497,0.98538
1677.82643,0.98511
1675.89790,0.98485
1673.96936,0.98451
1672.04083,0.98426
1670.11229,0.98410
1668.18375,0.98377
1666.25522,0.98347
1664.32668,0.98307
1662.39814,0.98243
1660.46961,0.98161
1658.54107,0.98076
1656.61254,0.97982
1654.68400,0.97759
1652.75546,0.96969
1650.82693,0.96313
1648.89839,0.95815
1646.96986,0.94560
1645.04132,0.93201
1643.11278,0.92560
1641.18425,0.92155
1639.25571,0.91959
1637.32718,0.92224
1635.39864,0.93387
1633.47010,0.94312
1631.54157,0.94680
1629.61303,0.94855
1627.68449,0.94813
1625.75596,0.94558
1623.82742,0.94121
1621.89889,0.93667
1619.97035,0.93459
1618.04181,0.93527
1616.11328,0.93959
1614.18474,0.94430
1612.25621,0.94793
1610.32767,0.95148
1608.39913,0.95460
1606.47060,0.95617
1604.54206,0.95662
1602.61352,0.95716
1600.68499,0.95841
1598.75645,0.95984
1596.82792,0.96078
1594.89938,0.96160
1592.97084,0.96244
1591.04231,0.96345
1589.11377,0.96440
1587.18524,0.96413
1585.25670,0.95987
1583.32816,0.94827
1581.39963,0.93303
1579.47109,0.92397
1577.54256,0.92926
1575.61402,0.94917
1573.68548,0.96056
1571.75695,0.96318
1569.82841,0.96436
1567.89987,0.96510
1565.97134,0.96487
1564.04280,0.96457
1562.11427,0.96448
1560.18573,0.96466
1558.25719,0.96522
1556.32866,0.96404
1554.40012,0.96285
1552.47159,0.96107
1550.54305,0.95868
1548.61451,0.95575
1546.68598,0.95314
1544.75744,0.95036
1542.82890,0.94539
1540.90037,0.93311
1538.97183,0.91379
1537.04330,0.90479
1535.11476,0.89535
1533.18622,0.87789
1531.25769,0.86089
1529.32915,0.84666
1527.40062,0.82131
1525.47208,0.77789
1523.54354,0.72331
1521.61501,0.63615
1519.68647,0.56191
1517.75793,0.55289
1515.82940,0.59110
1513.90086,0.64464
1511.97233,0.69667
1510.04379,0.74125
1508.11525,0.75831
1506.18672,0.71062
1504.25818,0.66712
1502.32965,0.63251
1500.40111,0.59370
1498.47257,0.55734
1496.54404,0.53584
1494.61550,0.52706
1492.68697,0.51789
1490.75843,0.49455
1488.82989,0.44212
1486.90136,0.39102
1484.97282,0.36018
1483.04428,0.34582
1481.11575,0.35412
1479.18721,0.38583
1477.25868,0.43402
1475.33014,0.49606
1473.40160,0.57707
1471.47307,0.65387
1469.54453,0.69164
1467.61600,0.71649
1465.68746,0.74919
1463.75892,0.78609
1461.83039,0.80849
1459.90185,0.82132
1457.97331,0.83856
1456.04478,0.85865
1454.11624,0.86383
1452.18771,0.86288
1450.25917,0.85451
1448.33063,0.82086
1446.40210,0.74720
1444.47356,0.66169
1442.54503,0.60335
1440.61649,0.59656
1438.68795,0.63401
1436.75942,0.69765
1434.83088,0.74789
1432.90235,0.76730
1430.97381,0.77785
1429.04527,0.78611
1427.11674,0.79143
1425.18820,0.79563
1423.25966,0.80009
1421.33113,0.80370
1419.40259,0.80639
1417.47406,0.80807
1415.54552,0.80785
1413.61698,0.80772
1411.68845,0.80899
1409.75991,0.81200
1407.83138,0.81511
1405.90284,0.81622
1403.97430,0.81356
1402.04577,0.80724
1400.11723,0.79690
1398.18869,0.78151
1396.26016,0.76380
1394.33162,0.74538
1392.40309,0.73062
1390.47455,0.72074
1388.54601,0.71339
1386.61748,0.71075
1384.68894,0.71510
1382.76041,0.72445
1380.83187,0.73772
1378.90333,0.75346
1376.97480,0.76990
1375.04626,0.78897
1373.11773,0.80998
1371.18919,0.82585
1369.26065,0.83835
1367.33212,0.84936
1365.40358,0.85769
1363.47504,0.86570
1361.54651,0.87388
1359.61797,0.87877
1357.68944,0.88015
1355.76090,0.87863
1353.83236,0.87331
1351.90383,0.86357
1349.97529,0.84818
1348.04676,0.82576
1346.11822,0.79651
1344.18968,0.76190
1342.26115,0.72317
1340.33261,0.67415
1338.40407,0.61681
1336.47554,0.57171
1334.54700,0.53916
1332.61847,0.51086
1330.68993,0.48444
1328.76139,0.46171
1326.83286,0.44650
1324.90432,0.44082
1322.97579,0.44390
1321.04725,0.45442
1319.11871,0.47252
1317.19018,0.49537
1315.26164,0.51690
1313.33311,0.53471
1311.40457,0.55115
1309.47603,0.57274
1307.54750,0.60489
1305.61896,0.64572
1303.69042,0.68902
1301.76189,0.73047
1299.83335,0.76759
1297.90482,0.79939
1295.97628,0.82565
1294.04774,0.84636
1292.11921,0.86228
1290.19067,0.87427
1288.26214,0.88246
1286.33360,0.88687
1284.40506,0.88842
1282.47653,0.88861
1280.54799,0.88841
1278.61945,0.88793
1276.69092,0.88759
1274.76238,0.88923
1272.83385,0.89443
1270.90531,0.90185
1268.97677,0.90847
1267.04824,0.91339
1265.11970,0.91760
1263.19117,0.92129
1261.26263,0.92330
1259.33409,0.92238
1257.40556,0.91878
1255.47702,0.91436
1253.54849,0.91149
1251.61995,0.91195
1249.69141,0.91595
1247.76288,0.92220
1245.83434,0.92906
1243.90580,0.93542
1241.97727,0.94063
1240.04873,0.94451
1238.12020,0.94734
1236.19166,0.94945
1234.26312,0.95108
1232.33459,0.95240
1230.40605,0.95349
1228.47752,0.95444
1226.54898,0.95525
1224.62044,0.95588
1222.69191,0.95631
1220.76337,0.95653
1218.83483,0.95656
1216.90630,0.95633
1214.97776,0.95566
1213.04923,0.95449
1211.12069,0.95303
1209.19215,0.95152
1207.26362,0.94984
1205.33508,0.94756
1203.40655,0.94416
1201.47801,0.93922
1199.54947,0.93250
1197.62094,0.92419
1195.69240,0.91547
1193.76387,0.90820
1191.83533,0.90396
1189.90679,0.90321
1187.97826,0.90478
1186.04972,0.90613
1184.12118,0.90550
1182.19265,0.90366
1180.26411,0.90228
1178.33558,0.90087
1176.40704,0.89532
1174.47850,0.87987
1172.54997,0.84983
1170.62143,0.80306
1168.69290,0.74107
1166.76436,0.66995
1164.83582,0.59901
1162.90729,0.53704
1160.97875,0.48836
1159.05021,0.45260
1157.12168,0.42907
1155.19314,0.41970
1153.26461,0.42620
1151.33607,0.44655
1149.40753,0.47588
1147.47900,0.50930
1145.55046,0.54335
1143.62193,0.57528
1141.69339,0.60291
1139.76485,0.62598
1137.83632,0.64678
1135.90778,0.66813
1133.97924,0.69152
1132.05071,0.71745
1130.12217,0.74610
1128.19364,0.77679
1126.26510,0.80750
1124.33656,0.83560
1122.40803,0.85913
1120.47949,0.87750
1118.55096,0.89114
1116.62242,0.90097
1114.69388,0.90806
1112.76535,0.91327
1110.83681,0.91724
1108.90828,0.92047
1106.97974,0.92302
1105.05120,0.92465
1103.12267,0.92519
1101.19413,0.92435
1099.26559,0.92195
1097.33706,0.91826
1095.40852,0.91365
1093.47999,0.90842
1091.55145,0.90264
1089.62291,0.89626
1087.69438,0.88906
1085.76584,0.88042
1083.83731,0.86958
1081.90877,0.85625
1079.98023,0.84107
1078.05170,0.82509
1076.12316,0.80789
1074.19462,0.78450
1072.26609,0.74509
1070.33755,0.68214
1068.40902,0.60061
1066.48048,0.51874
1064.55194,0.45801
1062.62341,0.43486
1060.69487,0.45879
1058.76634,0.52693
1056.83780,0.61854
1054.90926,0.70550
1052.98073,0.77103
1051.05219,0.81435
1049.12366,0.84211
1047.19512,0.86063
1045.26658,0.87382
1043.33805,0.88373
1041.40951,0.89139
1039.48097,0.89721
1037.55244,0.90091
1035.62390,0.90160
1033.69537,0.89840
1031.76683,0.89263
1029.83829,0.88894
1027.90976,0.89057
1025.98122,0.89470
1024.05269,0.89622
1022.12415,0.89333
1020.19561,0.88678
1018.26708,0.87683
1016.33854,0.86231
1014.41000,0.84053
1012.48147,0.80685
1010.55293,0.75531
1008.62440,0.68279
1006.69586,0.59417
1004.76732,0.50204
1002.83879,0.41999
1000.91025,0.35745
998.98172,0.31911
997.05318,0.30602
995.12464,0.31714
993.19611,0.35048
991.26757,0.40167
989.33904,0.46184
987.41050,0.51882
985.48196,0.56133
983.55343,0.58308
981.62489,0.58422
979.69635,0.57014
977.76782,0.54860
975.83928,0.52715
973.91075,0.51228
971.98221,0.50934
970.05367,0.52196
968.12514,0.55073
966.19660,0.59231
964.26807,0.64029
962.33953,0.68793
960.41099,0.73069
958.48246,0.76696
956.55392,0.79705
954.62538,0.82171
952.69685,0.84148
950.76831,0.85701
948.83978,0.86919
946.91124,0.87879
944.98270,0.88622
943.05417,0.89180
941.12563,0.89569
939.19710,0.89777
937.26856,0.89756
935.34002,0.89418
933.41149,0.88667
931.48295,0.87485
929.55442,0.85998
927.62588,0.84440
925.69734,0.83096
923.76881,0.82274
921.84027,0.82226
919.91173,0.83022
917.98320,0.84455
916.05466,0.86085
914.12613,0.87457
912.19759,0.88347
910.26905,0.88763
908.34052,0.88797
906.41198,0.88523
904.48345,0.88015
902.55491,0.87338
900.62637,0.86519
898.69784,0.85562
896.76930,0.84505
894.84076,0.83415
892.91223,0.82335
890.98369,0.81291
889.05516,0.80313
887.12662,0.79416
885.19808,0.78611
883.26955,0.77918
881.34101,0.77352
879.41248,0.76930
877.48394,0.76664
875.55540,0.76552
873.62687,0.76596
871.69833,0.76786
869.76980,0.77066
867.84126,0.77324
865.91272,0.77369
863.98419,0.76881
862.05565,0.75384
860.12711,0.72477
858.19858,0.68509
856.27004,0.64898
854.34151,0.63143
852.41297,0.63572
850.48443,0.65427
848.55590,0.67840
846.62736,0.70376
844.69883,0.72971
842.77029,0.75658
840.84175,0.78377
838.91322,0.80940
836.98468,0.83147
835.05614,0.84911
833.12761,0.86250
831.19907,0.87241
829.27054,0.87979
827.34200,0.88534
825.41346,0.88949
823.48493,0.89254
821.55639,0.89481
819.62786,0.89651
817.69932,0.89768
815.77078,0.89814
813.84225,0.89761
811.91371,0.89582
809.98517,0.89176
808.05664,0.88301
806.12810,0.86518
804.19957,0.83186
802.27103,0.77868
800.34249,0.71094
798.41396,0.64728
796.48542,0.61322
794.55689,0.62520
792.62835,0.67594
790.69981,0.73813
788.77128,0.78670
786.84274,0.81389
784.91421,0.82407
782.98567,0.82307
781.05713,0.81480
779.12860,0.80204
777.20006,0.78741
775.27152,0.77369
773.34299,0.76369
771.41445,0.75985
769.48592,0.76364
767.55738,0.77486
765.62884,0.79162
763.70031,0.81083
761.77177,0.82841
759.84324,0.83958
757.91470,0.84042
755.98616,0.82964
754.05763,0.80934
752.12909,0.78491
750.20055,0.76287
748.27202,0.74777
746.34348,0.74117
744.41495,0.74239
742.48641,0.74792
740.55787,0.75034
738.62934,0.74015
736.70080,0.71220
734.77227,0.67169
732.84373,0.63254
730.91519,0.60810
728.98666,0.60148
727.05812,0.60496
725.12959,0.61085
723.20105,0.62186
721.27251,0.64860
719.34398,0.69511
717.41544,0.75011
715.48690,0.79896
713.55837,0.83324
711.62983,0.84935
709.70130,0.84651
707.77276,0.82245
705.84422,0.77396
703.91569,0.70470
701.98715,0.63026
700.05862,0.57461
698.13008,0.56123
696.20154,0.59561
694.27301,0.65357
692.34447,0.70242
690.41593,0.73128
688.48740,0.74989
686.55886,0.76920
684.63033,0.79216
682.70179,0.81682
680.77325,0.83998
678.84472,0.85906
676.91618,0.87309
674.98765,0.88237
673.05911,0.88813
671.13057,0.89205
669.20204,0.89649
667.27350,0.90073
665.34497,0.90011
663.41643,0.89613
661.48789,0.89184
659.55936,0.89110
657.63082,0.89466
655.70228,0.89920
653.77375,0.89869
651.84521,0.87840
649.91668,0.80949
647.98814,0.69864
646.05960,0.63512
644.13107,0.68019
642.20253,0.77477
640.27400,0.84143
638.34546,0.87100
636.41692,0.88244
634.48839,0.88677
632.55985,0.88811
630.63131,0.88770
628.70278,0.88573
626.77424,0.88164
624.84571,0.87399
622.91717,0.86168
620.98863,0.84907
619.06010,0.84547
617.13156,0.85171
615.20303,0.85391
613.27449,0.84325
611.34595,0.82724
609.41742,0.81927
607.48888,0.82591
605.56035,0.84156
603.63181,0.85684
601.70327,0.86735
599.77474,0.87360
597.84620,0.87701
595.91766,0.87871
593.98913,0.87958
592.06059,0.87979
590.13206,0.87930
588.20352,0.87824
586.27498,0.87663
584.34645,0.87430
582.41791,0.87103
580.48938,0.86686
578.56084,0.86211
576.63230,0.85699
574.70377,0.85144
572.77523,0.84600
570.84669,0.84064
568.91816,0.83472
566.98962,0.82848
565.06109,0.82265
563.13255,0.81721
561.20401,0.81146
559.27548,0.80530
557.34694,0.79893
555.41841,0.79212
553.48987,0.78470
551.56133,0.77638
549.63280,0.76697
547.70426,0.75575
545.77573,0.74178
543.84719,0.72522
541.91865,0.70548
539.99012,0.68044
538.06158,0.64915
536.13304,0.61368
534.20451,0.58019
532.27597,0.55403
530.34744,0.53528
528.41890,0.52304
526.49036,0.51875
524.56183,0.52371
522.63329,0.53576
520.70476,0.55638
518.77622,0.59222
516.84768,0.64186
514.91915,0.68726
512.99061,0.71734
511.06207,0.73090
509.13354,0.72464
507.20500,0.69435
505.27647,0.64400
503.34793,0.58243
501.41939,0.52261
499.49086,0.48950
497.56232,0.49106
495.63379,0.52093
493.70525,0.57129
491.77671,0.63040
489.84818,0.68115
487.91964,0.71679
485.99110,0.74390
484.06257,0.76652
482.13403,0.78312
480.20550,0.79362
478.27696,0.80068
476.34842,0.80552
474.41989,0.80639
472.49135,0.79674
470.56282,0.77456
468.63428,0.75120
466.70574,0.73817
464.77721,0.73964
462.84867,0.74887
460.92014,0.75803
458.99160,0.76592
457.06306,0.77513
455.13453,0.78335
453.20599,0.78914
451.27745,0.79371
449.34892,0.79753
447.42038,0.80149
445.49185,0.80478
443.56331,0.80644
441.63477,0.80774
439.70624,0.80952
437.77770,0.81074
435.84917,0.81036
433.92063,0.80823
431.99209,0.80448
430.06356,0.80012
428.13502,0.79731
426.20648,0.79711
424.27795,0.79899
422.34941,0.80110
420.42088,0.80326
418.49234,0.80859
416.56380,0.81364
414.63527,0.81626
412.70673,0.81888
410.77820,0.82165
408.84966,0.82412
406.92112,0.82555
404.99259,0.82590
403.06405,0.82610
401.13552,0.82436
399.20698,0.82056
