3997.85540,0.90445
3995.92686,0.90445
3993.99833,0.90446
3992.06979,0.90446
3990.14125,0.90449
3988.21272,0.90458
3986.28418,0.90460
3984.35565,0.90453
3982.42711,0.90449
3980.49857,0.90455
3978.57004,0.90462
3976.64150,0.90467
3974.71297,0.90469
3972.78443,0.90474
3970.85589,0.90485
3968.92736,0.90497
3966.99882,0.90498
3965.07029,0.90494
3963.14175,0.90497
3961.21321,0.90507
3959.28468,0.90513
3957.35614,0.90509
3955.42760,0.90501
3953.49907,0.90502
3951.57053,0.90509
3949.64200,0.90512
3947.71346,0.90517
3945.78492,0.90528
3943.85639,0.90541
3941.92785,0.90553
3939.99932,0.90556
3938.07078,0.90554
3936.14224,0.90554
3934.21371,0.90549
3932.28517,0.90543
3930.35663,0.90553
3928.42810,0.90566
3926.49956,0.90568
3924.57103,0.90571
3922.64249,0.90577
3920.71395,0.90571
3918.78542,0.90566
3916.85688,0.90577
3914.92835,0.90589
3912.99981,0.90592
3911.07127,0.90592
3909.14274,0.90581
3907.21420,0.90559
3905.28566,0.90547
3903.35713,0.90562
3901.42859,0.90578
3899.50006,0.90581
3897.57152,0.90585
3895.64298,0.90589
3893.71445,0.90589
3891.78591,0.90588
3889.85738,0.90590
3887.92884,0.90594
3886.00030,0.90603
3884.07177,0.90615
3882.14323,0.90622
3880.21470,0.90628
3878.28616,0.90628
3876.35762,0.90624
3874.42909,0.90634
3872.50055,0.90648
3870.57201,0.90646
3868.64348,0.90641
3866.71494,0.90644
3864.78641,0.90651
3862.85787,0.90659
3860.92933,0.90659
3859.00080,0.90657
3857.07226,0.90651
3855.14373,0.90638
3853.21519,0.90634
3851.28665,0.90653
3849.35812,0.90662
3847.42958,0.90659
3845.50104,0.90651
3843.57251,0.90647
3841.64397,0.90656
3839.71544,0.90682
3837.78690,0.90692
3835.85836,0.90662
3833.92983,0.90640
3832.00129,0.90642
3830.07276,0.90649
3828.14422,0.90658
3826.21568,0.90676
3824.28715,0.90679
3822.35861,0.90669
3820.43008,0.90683
3818.50154,0.90694
3816.57300,0.90688
3814.64447,0.90690
3812.71593,0.90692
3810.78739,0.90684
3808.85886,0.90671
3806.93032,0.90663
3805.00179,0.90653
3803.07325,0.90642
3801.14471,0.90675
3799.21618,0.90722
3797.28764,0.90728
3795.35911,0.90714
3793.43057,0.90704
3791.50203,0.90695
3789.57350,0.90685
3787.64496,0.90672
3785.71642,0.90667
3783.78789,0.90673
3781.85935,0.90666
3779.93082,0.90651
3778.00228,0.90656
3776.07374,0.90667
3774.14521,0.90670
3772.21667,0.90667
3770.28814,0.90671
3768.35960,0.90683
3766.43106,0.90692
3764.50253,0.90700
3762.57399,0.90708
3760.64546,0.90719
3758.71692,0.90741
3756.78838,0.90746
3754.85985,0.90731
3752.93131,0.90716
3751.00277,0.90715
3749.07424,0.90738
3747.14570,0.90755
3745.21717,0.90772
3743.28863,0.90793
3741.36009,0.90798
3739.43156,0.90796
3737.50302,0.90790
3735.57449,0.90763
3733.64595,0.90760
3731.71741,0.90805
3729.78888,0.90830
3727.86034,0.90827
3725.93180,0.90816
3724.00327,0.90801
3722.07473,0.90802
3720.14620,0.90828
3718.21766,0.90850
3716.28912,0.90850
3714.36059,0.90828
3712.43205,0.90790
3710.50352,0.90770
3708.57498,0.90787
3706.64644,0.90798
3704.71791,0.90798
3702.78937,0.90801
3700.86084,0.90802
3698.93230,0.90789
3697.00376,0.90777
3695.07523,0.90776
3693.14669,0.90775
3691.21815,0.90775
3689.28962,0.90795
3687.36108,0.90801
3685.43255,0.90783
3683.50401,0.90763
3681.57547,0.90748
3679.64694,0.90732
3677.71840,0.90705
3675.78987,0.90679
3673.86133,0.90671
3671.93279,0.90662
3670.00426,0.90660
3668.07572,0.90673
3666.14718,0.90676
3664.21865,0.90669
3662.29011,0.90655
3660.36158,0.90638
3658.43304,0.90630
3656.50450,0.90634
3654.57597,0.90631
3652.64743,0.90612
3650.71890,0.90581
3648.79036,0.90592
3646.86182,0.90658
3644.93329,0.90684
3643.00475,0.90678
3641.07622,0.90666
3639.14768,0.90662
3637.21914,0.90660
3635.29061,0.90652
3633.36207,0.90641
3631.43353,0.90635
3629.50500,0.90661
3627.57646,0.90700
3625.64793,0.90695
3623.71939,0.90679
3621.79085,0.90674
3619.86232,0.90694
3617.93378,0.90731
3616.00525,0.90748
3614.07671,0.90757
3612.14817,0.90759
3610.21964,0.90744
3608.29110,0.90727
3606.36256,0.90718
3604.43403,0.90702
3602.50549,0.90679
3600.57696,0.90663
3598.64842,0.90671
3596.71988,0.90695
3594.79135,0.90715
3592.86281,0.90725
3590.93428,0.90726
3589.00574,0.90724
3587.07720,0.90733
3585.14867,0.90745
3583.22013,0.90738
3581.29160,0.90725
3579.36306,0.90720
3577.43452,0.90720
3575.50599,0.90723
3573.57745,0.90730
3571.64891,0.90731
3569.72038,0.90724
3567.79184,0.90710
3565.86331,0.90692
3563.93477,0.90680
3562.00623,0.90672
3560.07770,0.90663
3558.14916,0.90653
3556.22063,0.90649
3554.29209,0.90648
3552.36355,0.90642
3550.43502,0.90626
3548.50648,0.90605
3546.57794,0.90588
3544.64941,0.90576
3542.72087,0.90572
3540.79234,0.90567
3538.86380,0.90560
3536.93526,0.90555
3535.00673,0.90550
3533.07819,0.90544
3531.14966,0.90538
3529.22112,0.90524
3527.29258,0.90504
3525.36405,0.90500
3523.43551,0.90506
3521.50697,0.90507
3519.57844,0.90506
3517.64990,0.90506
3515.72137,0.90500
3513.79283,0.90489
3511.86429,0.90479
3509.93576,0.90470
3508.00722,0.90459
3506.07869,0.90447
3504.15015,0.90440
3502.22161,0.90442
3500.29308,0.90442
3498.36454,0.90434
3496.43601,0.90423
3494.50747,0.90419
3492.57893,0.90415
3490.65040,0.90406
3488.72186,0.90399
3486.79332,0.90390
3484.86479,0.90374
3482.93625,0.90363
3481.00772,0.90365
3479.07918,0.90373
3477.15064,0.90376
3475.22211,0.90369
3473.29357,0.90355
3471.36504,0.90345
3469.43650,0.90346
3467.50796,0.90350
3465.57943,0.90348
3463.65089,0.90337
3461.72235,0.90319
3459.79382,0.90302
3457.86528,0.90295
3455.93675,0.90293
3454.00821,0.90288
3452.07967,0.90276
3450.15114,0.90262
3448.22260,0.90250
3446.29407,0.90241
3444.36553,0.90237
3442.43699,0.90234
3440.50846,0.90226
3438.57992,0.90212
3436.65139,0.90198
3434.72285,0.90191
3432.79431,0.90188
3430.86578,0.90179
3428.93724,0.90158
3427.00870,0.90137
3425.08017,0.90125
3423.15163,0.90114
3421.22310,0.90100
3419.29456,0.90092
3417.36602,0.90084
3415.43749,0.90076
3413.50895,0.90065
3411.58042,0.90043
3409.65188,0.90019
3407.72334,0.90006
3405.79481,0.89995
3403.86627,0.89983
3401.93773,0.89970
3400.00920,0.89956
3398.08066,0.89938
3396.15213,0.89919
3394.22359,0.89904
3392.29505,0.89897
3390.36652,0.89891
3388.43798,0.89879
3386.50945,0.89864
3384.58091,0.89849
3382.65237,0.89839
3380.72384,0.89839
3378.79530,0.89843
3376.86677,0.89836
3374.93823,0.89820
3373.00969,0.89808
3371.08116,0.89808
3369.15262,0.89811
3367.22408,0.89805
3365.29555,0.89791
3363.36701,0.89780
3361.43848,0.89775
3359.50994,0.89772
3357.58140,0.89768
3355.65287,0.89763
3353.72433,0.89754
3351.79580,0.89746
3349.86726,0.89739
3347.93872,0.89731
3346.01019,0.89728
3344.08165,0.89729
3342.15311,0.89717
3340.22458,0.89695
3338.29604,0.89681
3336.36751,0.89684
3334.43897,0.89694
3332.51043,0.89695
3330.58190,0.89686
3328.65336,0.89683
3326.72483,0.89691
3324.79629,0.89700
3322.86775,0.89700
3320.93922,0.89697
3319.01068,0.89696
3317.08215,0.89698
3315.15361,0.89701
3313.22507,0.89697
3311.29654,0.89687
3309.36800,0.89688
3307.43946,0.89701
3305.51093,0.89713
3303.58239,0.89716
3301.65386,0.89714
3299.72532,0.89713
3297.79678,0.89715
3295.86825,0.89714
3293.93971,0.89716
3292.01118,0.89725
3290.08264,0.89731
3288.15410,0.89726
3286.22557,0.89722
3284.29703,0.89731
3282.36849,0.89750
3280.43996,0.89764
3278.51142,0.89766
3276.58289,0.89765
3274.65435,0.89773
3272.72581,0.89787
3270.79728,0.89786
3268.86874,0.89776
3266.94021,0.89773
3265.01167,0.89773
3263.08313,0.89767
3261.15460,0.89768
3259.22606,0.89782
3257.29753,0.89799
3255.36899,0.89809
3253.44045,0.89805
3251.51192,0.89796
3249.58338,0.89796
3247.65484,0.89802
3245.72631,0.89805
3243.79777,0.89802
3241.86924,0.89796
3239.94070,0.89789
3238.01216,0.89785
3236.08363,0.89782
3234.15509,0.89771
3232.22656,0.89754
3230.29802,0.89734
3228.36948,0.89713
3226.44095,0.89707
3224.51241,0.89720
3222.58387,0.89735
3220.65534,0.89740
3218.72680,0.89733
3216.79827,0.89723
3214.86973,0.89718
3212.94119,0.89716
3211.01266,0.89707
3209.08412,0.89694
3207.15559,0.89687
3205.22705,0.89684
3203.29851,0.89687
3201.36998,0.89688
3199.44144,0.89680
3197.51290,0.89668
3195.58437,0.89663
3193.65583,0.89667
3191.72730,0.89678
3189.79876,0.89680
3187.87022,0.89665
3185.94169,0.89651
3184.01315,0.89650
3182.08462,0.89652
3180.15608,0.89645
3178.22754,0.89634
3176.29901,0.89628
3174.37047,0.89625
3172.44194,0.89619
3170.51340,0.89614
3168.58486,0.89618
3166.65633,0.89624
3164.72779,0.89631
3162.79925,0.89638
3160.87072,0.89641
3158.94218,0.89648
3157.01365,0.89678
3155.08511,0.89735
3153.15657,0.89786
3151.22804,0.89784
3149.29950,0.89732
3147.37097,0.89678
3145.44243,0.89651
3143.51389,0.89663
3141.58536,0.89718
3139.65682,0.89779
3137.72828,0.89797
3135.79975,0.89773
3133.87121,0.89761
3131.94268,0.89793
3130.01414,0.89838
3128.08560,0.89856
3126.15707,0.89863
3124.22853,0.89896
3122.30000,0.89958
3120.37146,0.90017
3118.44292,0.90042
3116.51439,0.90036
3114.58585,0.90015
3112.65732,0.89997
3110.72878,0.90003
3108.80024,0.90021
3106.87171,0.90019
3104.94317,0.90001
3103.01463,0.89992
3101.08610,0.89988
3099.15756,0.89959
3097.22903,0.89896
3095.30049,0.89822
3093.37195,0.89762
3091.44342,0.89714
3089.51488,0.89659
3087.58635,0.89590
3085.65781,0.89511
3083.72927,0.89417
3081.80074,0.89299
3079.87220,0.89166
3077.94366,0.89033
3076.01513,0.88919
3074.08659,0.88834
3072.15806,0.88776
3070.22952,0.88727
3068.30098,0.88664
3066.37245,0.88560
3064.44391,0.88401
3062.51538,0.88203
3060.58684,0.87995
3058.65830,0.87795
3056.72977,0.87625
3054.80123,0.87517
3052.87270,0.87493
3050.94416,0.87557
3049.01562,0.87708
3047.08709,0.87926
3045.15855,0.88167
3043.23001,0.88390
3041.30148,0.88569
3039.37294,0.88702
3037.44441,0.88805
3035.51587,0.88887
3033.58733,0.88950
3031.65880,0.88998
3029.73026,0.89028
3027.80173,0.89036
3025.87319,0.89030
3023.94465,0.89016
3022.01612,0.89001
3020.08758,0.88996
3018.15904,0.89002
3016.23051,0.89007
3014.30197,0.89002
3012.37344,0.88975
3010.44490,0.88901
3008.51636,0.88786
3006.58783,0.88677
3004.65929,0.88610
3002.73076,0.88584
3000.80222,0.88582
2998.87368,0.88582
2996.94515,0.88551
2995.01661,0.88496
2993.08808,0.88432
2991.15954,0.88347
2989.23100,0.88257
2987.30247,0.88212
2985.37393,0.88229
2983.44539,0.88283
2981.51686,0.88324
2979.58832,0.88297
2977.65979,0.88199
2975.73125,0.88056
2973.80271,0.87867
2971.87418,0.87627
2969.94564,0.87360
2968.01711,0.87093
2966.08857,0.86843
2964.16003,0.86625
2962.23150,0.86427
2960.30296,0.86243
2958.37442,0.86094
2956.44589,0.86009
2954.51735,0.85996
2952.58882,0.86032
2950.66028,0.86093
2948.73174,0.86171
2946.80321,0.86242
2944.87467,0.86256
2942.94614,0.86176
2941.01760,0.86003
2939.08906,0.85758
2937.16053,0.85465
2935.23199,0.85143
2933.30346,0.84821
2931.37492,0.84524
2929.44638,0.84256
2927.51785,0.84024
2925.58931,0.83861
2923.66077,0.83793
2921.73224,0.83827
2919.80370,0.83958
2917.87517,0.84156
2915.94663,0.84373
2914.01809,0.84581
2912.08956,0.84770
2910.16102,0.84945
2908.23249,0.85121
2906.30395,0.85316
2904.37541,0.85528
2902.44688,0.85744
2900.51834,0.85956
2898.58980,0.86178
2896.66127,0.86404
2894.73273,0.86607
2892.80420,0.86786
2890.87566,0.86961
2888.94712,0.87138
2887.01859,0.87304
2885.09005,0.87444
2883.16152,0.87550
2881.23298,0.87622
2879.30444,0.87662
2877.37591,0.87676
2875.44737,0.87679
2873.51883,0.87653
2871.59030,0.87583
2869.66176,0.87510
2867.73323,0.87473
2865.80469,0.87448
2863.87615,0.87390
2861.94762,0.87282
2860.01908,0.87112
2858.09055,0.86892
2856.16201,0.86679
2854.23347,0.86542
2852.30494,0.86531
2850.37640,0.86660
2848.44787,0.86879
2846.51933,0.87107
2844.59079,0.87308
2842.66226,0.87493
2840.73372,0.87658
2838.80518,0.87772
2836.87665,0.87818
2834.94811,0.87823
2833.01958,0.87834
2831.09104,0.87882
2829.16250,0.87978
2827.23397,0.88124
2825.30543,0.88301
2823.37690,0.88480
2821.44836,0.88641
2819.51982,0.88778
2817.59129,0.88887
2815.66275,0.88974
2813.73421,0.89055
2811.80568,0.89134
2809.87714,0.89196
2807.94861,0.89234
2806.02007,0.89263
2804.09153,0.89296
2802.16300,0.89341
2800.23446,0.89400
2798.30593,0.89462
2796.37739,0.89508
2794.44885,0.89541
2792.52032,0.89576
2790.59178,0.89608
2788.66325,0.89624
2786.73471,0.89622
2784.80617,0.89616
2782.87764,0.89622
2780.94910,0.89642
2779.02056,0.89666
2777.09203,0.89704
2775.16349,0.89753
2773.23496,0.89782
2771.30642,0.89785
2769.37788,0.89786
2767.44935,0.89797
2765.52081,0.89815
2763.59228,0.89835
2761.66374,0.89853
2759.73520,0.89873
2757.80667,0.89893
2755.87813,0.89907
2753.94959,0.89919
2752.02106,0.89944
2750.09252,0.89975
2748.16399,0.89992
2746.23545,0.89993
2744.30691,0.89991
2742.37838,0.89996
2740.44984,0.90004
2738.52131,0.90014
2736.59277,0.90018
2734.66423,0.90013
2732.73570,0.90011
2730.80716,0.90021
2728.87863,0.90042
2726.95009,0.90066
2725.02155,0.90075
2723.09302,0.90070
2721.16448,0.90062
2719.23594,0.90055
2717.30741,0.90058
2715.37887,0.90071
2713.45034,0.90084
2711.52180,0.90095
2709.59326,0.90104
2707.66473,0.90112
2705.73619,0.90118
2703.80766,0.90126
2701.87912,0.90135
2699.95058,0.90143
2698.02205,0.90141
2696.09351,0.90127
2694.16497,0.90107
2692.23644,0.90083
2690.30790,0.90061
2688.37937,0.90046
2686.45083,0.90034
2684.52229,0.90029
2682.59376,0.90038
2680.66522,0.90058
2678.73669,0.90076
2676.80815,0.90091
2674.87961,0.90098
2672.95108,0.90098
2671.02254,0.90105
2669.09401,0.90124
2667.16547,0.90142
2665.23693,0.90153
2663.30840,0.90163
2661.37986,0.90178
2659.45132,0.90198
2657.52279,0.90219
2655.59425,0.90235
2653.66572,0.90248
2651.73718,0.90266
2649.80864,0.90288
2647.88011,0.90312
2645.95157,0.90331
2644.02304,0.90351
2642.09450,0.90372
2640.16596,0.90388
2638.23743,0.90399
2636.30889,0.90416
2634.38035,0.90436
2632.45182,0.90453
2630.52328,0.90465
2628.59475,0.90474
2626.66621,0.90478
2624.73767,0.90484
2622.80914,0.90495
2620.88060,0.90506
2618.95207,0.90514
2617.02353,0.90521
2615.09499,0.90523
2613.16646,0.90516
2611.23792,0.90509
2609.30939,0.90527
2607.38085,0.90566
2605.45231,0.90604
2603.52378,0.90627
2601.59524,0.90635
2599.66670,0.90633
2597.73817,0.90632
2595.80963,0.90641
2593.88110,0.90655
2591.95256,0.90663
2590.02402,0.90666
2588.09549,0.90662
2586.16695,0.90654
2584.23842,0.90653
2582.30988,0.90663
2580.38134,0.90681
2578.45281,0.90701
2576.52427,0.90715
2574.59573,0.90720
2572.66720,0.90728
2570.73866,0.90740
2568.81013,0.90744
2566.88159,0.90740
2564.95305,0.90745
2563.02452,0.90759
2561.09598,0.90764
2559.16745,0.90759
2557.23891,0.90763
2555.31037,0.90776
2553.38184,0.90789
2551.45330,0.90804
2549.52476,0.90827
2547.59623,0.90847
2545.66769,0.90854
2543.73916,0.90854
2541.81062,0.90859
2539.88208,0.90867
2537.95355,0.90876
2536.02501,0.90890
2534.09648,0.90905
2532.16794,0.90918
2530.23940,0.90926
2528.31087,0.90928
2526.38233,0.90935
2524.45380,0.90952
2522.52526,0.90972
2520.59672,0.90992
2518.66819,0.91007
2516.73965,0.91007
2514.81111,0.90999
2512.88258,0.90997
2510.95404,0.91001
2509.02551,0.91010
2507.09697,0.91016
2505.16843,0.91014
2503.23990,0.91006
2501.31136,0.91001
2499.38283,0.90999
2497.45429,0.90999
2495.52575,0.91009
2493.59722,0.91018
2491.66868,0.91024
2489.74014,0.91045
2487.81161,0.91078
2485.88307,0.91105
2483.95454,0.91121
2482.02600,0.91135
2480.09746,0.91147
2478.16893,0.91150
2476.24039,0.91151
2474.31186,0.91162
2472.38332,0.91178
2470.45478,0.91183
2468.52625,0.91175
2466.59771,0.91159
2464.66918,0.91141
2462.74064,0.91123
2460.81210,0.91108
2458.88357,0.91092
2456.95503,0.91076
2455.02649,0.91064
2453.09796,0.91061
2451.16942,0.91058
2449.24089,0.91054
2447.31235,0.91056
2445.38381,0.91061
2443.45528,0.91067
2441.52674,0.91077
2439.59821,0.91094
2437.66967,0.91112
2435.74113,0.91126
2433.81260,0.91134
2431.88406,0.91144
2429.95552,0.91155
2428.02699,0.91161
2426.09845,0.91172
2424.16992,0.91191
2422.24138,0.91204
2420.31284,0.91208
2418.38431,0.91210
2416.45577,0.91212
2414.52724,0.91212
2412.59870,0.91209
2410.67016,0.91212
2408.74163,0.91225
2406.81309,0.91241
2404.88456,0.91245
2402.95602,0.91240
2401.02748,0.91239
2399.09895,0.91239
2397.17041,0.91237
2395.24187,0.91236
2393.31334,0.91234
2391.38480,0.91235
2389.45627,0.91229
2387.52773,0.91206
2385.59919,0.91180
2383.67066,0.91160
2381.74212,0.91132
2379.81359,0.91090
2377.88505,0.91045
2375.95651,0.91012
2374.02798,0.90976
2372.09944,0.90915
2370.17090,0.90837
2368.24237,0.90743
2366.31383,0.90645
2364.38530,0.90587
2362.45676,0.90554
2360.52822,0.90532
2358.59969,0.90546
2356.67115,0.90581
2354.74262,0.90634
2352.81408,0.90713
2350.88554,0.90783
2348.95701,0.90811
2347.02847,0.90796
2345.09994,0.90757
2343.17140,0.90733
2341.24286,0.90739
2339.31433,0.90743
2337.38579,0.90727
2335.45725,0.90710
2333.52872,0.90719
2331.60018,0.90750
2329.67165,0.90764
2327.74311,0.90736
2325.81457,0.90706
2323.88604,0.90733
2321.95750,0.90820
2320.02897,0.90925
2318.10043,0.91016
2316.17189,0.91078
2314.24336,0.91128
2312.31482,0.91193
2310.38628,0.91250
2308.45775,0.91274
2306.52921,0.91293
2304.60068,0.91327
2302.67214,0.91360
2300.74360,0.91384
2298.81507,0.91404
2296.88653,0.91410
2294.95800,0.91407
2293.02946,0.91416
2291.10092,0.91447
2289.17239,0.91487
2287.24385,0.91524
2285.31532,0.91557
2283.38678,0.91592
2281.45824,0.91639
2279.52971,0.91682
2277.60117,0.91705
2275.67263,0.91724
2273.74410,0.91756
2271.81556,0.91787
2269.88703,0.91809
2267.95849,0.91824
2266.02995,0.91831
2264.10142,0.91830
2262.17288,0.91816
2260.24435,0.91794
2258.31581,0.91780
2256.38727,0.91774
2254.45874,0.91764
2252.53020,0.91760
2250.60166,0.91768
2248.67313,0.91767
2246.74459,0.91744
2244.81606,0.91714
2242.88752,0.91697
2240.95898,0.91705
2239.03045,0.91726
2237.10191,0.91728
2235.17338,0.91711
2233.24484,0.91688
2231.31630,0.91654
2229.38777,0.91615
2227.45923,0.91589
2225.53070,0.91573
2223.60216,0.91546
2221.67362,0.91498
2219.74509,0.91453
2217.81655,0.91453
2215.88801,0.91480
2213.95948,0.91482
2212.03094,0.91461
2210.10241,0.91453
2208.17387,0.91456
2206.24533,0.91472
2204.31680,0.91526
2202.38826,0.91604
2200.45973,0.91661
2198.53119,0.91671
2196.60265,0.91665
2194.67412,0.91701
2192.74558,0.91781
2190.81704,0.91848
2188.88851,0.91877
2186.95997,0.91903
2185.03144,0.91955
2183.10290,0.92042
2181.17436,0.92131
2179.24583,0.92171
2177.31729,0.92208
2175.38876,0.92294
2173.46022,0.92373
2171.53168,0.92385
2169.60315,0.92369
2167.67461,0.92376
2165.74607,0.92400
2163.81754,0.92449
2161.88900,0.92576
2159.96047,0.92796
2158.03193,0.92955
2156.10339,0.92918
2154.17486,0.92798
2152.24632,0.92727
2150.31779,0.92700
2148.38925,0.92672
2146.46071,0.92633
2144.53218,0.92575
2142.60364,0.92506
2140.67511,0.92454
2138.74657,0.92430
2136.81803,0.92436
2134.88950,0.92438
2132.96096,0.92393
2131.03242,0.92323
2129.10389,0.92275
2127.17535,0.92243
2125.24682,0.92212
2123.31828,0.92192
2121.38974,0.92188
2119.46121,0.92199
2117.53267,0.92213
2115.60414,0.92221
2113.67560,0.92223
2111.74706,0.92236
2109.81853,0.92260
2107.88999,0.92282
2105.96145,0.92308
2104.03292,0.92338
2102.10438,0.92348
2100.17585,0.92335
2098.24731,0.92337
2096.31877,0.92374
2094.39024,0.92396
2092.46170,0.92366
2090.53317,0.92312
2088.60463,0.92281
2086.67609,0.92276
2084.74756,0.92286
2082.81902,0.92316
2080.89049,0.92356
2078.96195,0.92378
2077.03341,0.92393
2075.10488,0.92414
2073.17634,0.92430
2071.24780,0.92439
2069.31927,0.92461
2067.39073,0.92489
2065.46220,0.92509
2063.53366,0.92524
2061.60512,0.92548
2059.67659,0.92572
2057.74805,0.92594
2055.81952,0.92625
2053.89098,0.92639
2051.96244,0.92637
2050.03391,0.92665
2048.10537,0.92732
2046.17683,0.92810
2044.24830,0.92871
2042.31976,0.92906
2040.39123,0.92947
2038.46269,0.93012
2036.53415,0.93096
2034.60562,0.93174
2032.67708,0.93212
2030.74855,0.93238
2028.82001,0.93273
2026.89147,0.93273
2024.96294,0.93239
2023.03440,0.93223
2021.10587,0.93256
2019.17733,0.93295
2017.24879,0.93289
2015.32026,0.93274
2013.39172,0.93275
2011.46318,0.93263
2009.53465,0.93243
2007.60611,0.93228
2005.67758,0.93192
2003.74904,0.93119
2001.82050,0.93041
1999.89197,0.92995
1997.96343,0.92990
1996.03490,0.93001
1994.10636,0.92996
1992.17782,0.92953
1990.24929,0.92885
1988.32075,0.92838
1986.39221,0.92825
1984.46368,0.92824
1982.53514,0.92809
1980.60661,0.92812
1978.67807,0.92884
1976.74953,0.92975
1974.82100,0.93000
1972.89246,0.92957
1970.96393,0.92904
1969.03539,0.92877
1967.10685,0.92871
1965.17832,0.92874
1963.24978,0.92860
1961.32125,0.92843
1959.39271,0.92842
1957.46417,0.92827
1955.53564,0.92796
1953.60710,0.92781
1951.67856,0.92795
1949.75003,0.92807
1947.82149,0.92806
1945.89296,0.92815
1943.96442,0.92847
1942.03588,0.92890
1940.10735,0.92910
1938.17881,0.92908
1936.25028,0.92911
1934.32174,0.92926
1932.39320,0.92929
1930.46467,0.92907
1928.53613,0.92883
1926.60759,0.92871
1924.67906,0.92852
1922.75052,0.92815
1920.82199,0.92782
1918.89345,0.92744
1916.96491,0.92688
1915.03638,0.92646
1913.10784,0.92617
1911.17931,0.92572
1909.25077,0.92499
1907.32223,0.92439
1905.39370,0.92413
1903.46516,0.92395
1901.53663,0.92366
1899.60809,0.92345
1897.67955,0.92337
1895.75102,0.92330
1893.82248,0.92319
1891.89394,0.92311
1889.96541,0.92307
1888.03687,0.92314
1886.10834,0.92345
1884.17980,0.92394
1882.25126,0.92445
1880.32273,0.92497
1878.39419,0.92549
1876.46566,0.92592
1874.53712,0.92622
1872.60858,0.92644
1870.68005,0.92669
1868.75151,0.92703
1866.82297,0.92736
1864.89444,0.92746
1862.96590,0.92745
1861.03737,0.92754
1859.10883,0.92781
1857.18029,0.92810
1855.25176,0.92820
1853.32322,0.92815
1851.39469,0.92803
1849.46615,0.92796
1847.53761,0.92804
1845.60908,0.92814
1843.68054,0.92803
1841.75200,0.92780
1839.82347,0.92758
1837.89493,0.92730
1835.96640,0.92704
1834.03786,0.92686
1832.10932,0.92666
1830.18079,0.92616
1828.25225,0.92548
1826.32372,0.92499
1824.39518,0.92463
1822.46664,0.92433
1820.53811,0.92407
1818.60957,0.92388
1816.68104,0.92368
1814.75250,0.92341
1812.82396,0.92321
1810.89543,0.92318
1808.96689,0.92340
1807.03835,0.92386
1805.10982,0.92447
1803.18128,0.92515
1801.25275,0.92591
1799.32421,0.92668
1797.39567,0.92727
1795.46714,0.92762
1793.53860,0.92774
1791.61007,0.92783
1789.68153,0.92799
1787.75299,0.92802
1785.82446,0.92783
1783.89592,0.92749
1781.96738,0.92703
1780.03885,0.92650
1778.11031,0.92617
1776.18178,0.92617
1774.25324,0.92632
1772.32470,0.92648
1770.39617,0.92670
1768.46763,0.92693
1766.53910,0.92707
1764.61056,0.92711
1762.68202,0.92711
1760.75349,0.92711
1758.82495,0.92707
1756.89642,0.92695
1754.96788,0.92679
1753.03934,0.92662
1751.11081,0.92637
1749.18227,0.92605
1747.25373,0.92573
1745.32520,0.92541
1743.39666,0.92513
1741.46813,0.92490
1739.53959,0.92470
1737.61105,0.92446
1735.68252,0.92415
1733.75398,0.92372
1731.82545,0.92335
1729.89691,0.92300
1727.96837,0.92245
1726.03984,0.92165
1724.11130,0.92053
1722.18276,0.91926
1720.25423,0.91806
1718.32569,0.91639
1716.39716,0.91374
1714.46862,0.91147
1712.54008,0.90959
1710.61155,0.90748
1708.68301,0.90501
1706.75448,0.90168
1704.82594,0.89757
1702.89740,0.89439
1700.96887,0.89192
1699.04033,0.88992
1697.11180,0.89064
1695.18326,0.89356
1693.25472,0.89621
1691.32619,0.89863
1689.39765,0.90149
1687.46911,0.90396
1685.54058,0.90605
1683.61204,0.90909
1681.68351,0.91130
1679.75497,0.91249
1677.82643,0.91363
1675.89790,0.91507
1673.96936,0.91672
1672.04083,0.91801
1670.11229,0.91955
1668.18375,0.92136
1666.25522,0.92239
1664.32668,0.92322
1662.39814,0.92442
1660.46961,0.92546
1658.54107,0.92600
1656.61254,0.92629
1654.68400,0.92663
1652.75546,0.92708
1650.82693,0.92694
1648.89839,0.92618
1646.96986,0.92384
1645.04132,0.92030
1643.11278,0.91693
1641.18425,0.91282
1639.25571,0.90778
1637.32718,0.90050
1635.39864,0.88861
1633.47010,0.88132
1631.54157,0.87987
1629.61303,0.88118
1627.68449,0.88520
1625.75596,0.89023
1623.82742,0.89523
1621.89889,0.89918
1619.97035,0.90056
1618.04181,0.90017
1616.11328,0.89829
1614.18474,0.89661
1612.25621,0.89563
1610.32767,0.89436
1608.39913,0.89164
1606.47060,0.88654
1604.54206,0.87871
1602.61352,0.86761
1600.68499,0.85445
1598.75645,0.84105
1596.82792,0.82718
1594.89938,0.81225
1592.97084,0.79801
1591.04231,0.78601
1589.11377,0.77608
1587.18524,0.76726
1585.25670,0.75724
1583.32816,0.74470
1581.39963,0.73184
1579.47109,0.72226
1577.54256,0.71721
1575.61402,0.71736
1573.68548,0.71940
1571.75695,0.72026
1569.82841,0.72138
1567.89987,0.72466
1565.97134,0.73005
1564.04280,0.73599
1562.11427,0.73996
1560.18573,0.74144
1558.25719,0.74216
1556.32866,0.74774
1554.40012,0.75804
1552.47159,0.77052
1550.54305,0.78427
1548.61451,0.79743
1546.68598,0.80671
1544.75744,0.81406
1542.82890,0.82184
1540.90037,0.83187
1538.97183,0.84236
1537.04330,0.84649
1535.11476,0.84937
1533.18622,0.85411
1531.25769,0.85830
1529.32915,0.86063
1527.40062,0.86305
1525.47208,0.86562
1523.54354,0.86804
1521.61501,0.87128
1519.68647,0.87466
1517.75793,0.87764
1515.82940,0.88101
1513.90086,0.88340
1511.97233,0.88430
1510.04379,0.88424
1508.11525,0.87688
1506.18672,0.84767
1504.25818,0.82380
1502.32965,0.80321
1500.40111,0.77693
1498.47257,0.74491
1496.54404,0.71675
1494.61550,0.70597
1492.68697,0.70814
1490.75843,0.71885
1488.82989,0.72907
1486.90136,0.72047
1484.97282,0.70195
1483.04428,0.68311
1481.11575,0.66942
1479.18721,0.66760
1477.25868,0.67842
1475.33014,0.69887
1473.40160,0.72916
1471.47307,0.75908
1469.54453,0.77316
1467.61600,0.77982
1465.68746,0.78630
1463.75892,0.79361
1461.83039,0.79929
1459.90185,0.80332
1457.97331,0.80448
1456.04478,0.79623
1454.11624,0.78403
1452.18771,0.77014
1450.25917,0.75438
1448.33063,0.74001
1446.40210,0.73316
1444.47356,0.73446
1442.54503,0.73448
1440.61649,0.72452
1438.68795,0.70198
1436.75942,0.66666
1434.83088,0.64234
1432.90235,0.64336
1430.97381,0.65633
1429.04527,0.67224
1427.11674,0.68592
1425.18820,0.69936
1423.25966,0.71311
1421.33113,0.72283
1419.40259,0.72844
1417.47406,0.73068
1415.54552,0.73008
1413.61698,0.72892
1411.68845,0.72836
1409.75991,0.72914
1407.83138,0.73145
1405.90284,0.73534
1403.97430,0.74006
1402.04577,0.74358
1400.11723,0.74571
1398.18869,0.74637
1396.26016,0.74419
1394.33162,0.73847
1392.40309,0.73210
1390.47455,0.72780
1388.54601,0.72634
1386.61748,0.72865
1384.68894,0.73331
1382.76041,0.73890
1380.83187,0.74576
1378.90333,0.75394
1376.97480,0.76296
1375.04626,0.77290
1373.11773,0.78120
1371.18919,0.78345
1369.26065,0.77949
1367.33212,0.77134
1365.40358,0.76263
1363.47504,0.75540
1361.54651,0.75277
1359.61797,0.75756
1357.68944,0.76841
1355.76090,0.78359
1353.83236,0.79979
1351.90383,0.81369
1349.97529,0.82462
1348.04676,0.83239
1346.11822,0.83623
1344.18968,0.83601
1342.26115,0.83196
1340.33261,0.82306
1338.40407,0.81008
1336.47554,0.79858
1334.54700,0.79072
1332.61847,0.78612
1330.68993,0.78486
1328.76139,0.78700
1326.83286,0.79209
1324.90432,0.79926
1322.97579,0.80729
1321.04725,0.81507
1319.11871,0.82182
1317.19018,0.82609
1315.26164,0.82649
1313.33311,0.82232
1311.40457,0.81403
1309.47603,0.80347
1307.54750,0.79280
1305.61896,0.78465
1303.69042,0.78102
1301.76189,0.78228
1299.83335,0.78810
1297.90482,0.79792
1295.97628,0.81005
1294.04774,0.82139
1292.11921,0.82921
1290.19067,0.83217
1288.26214,0.82959
1286.33360,0.82124
1284.40506,0.80788
1282.47653,0.79162
1280.54799,0.77624
1278.61945,0.76605
1276.69092,0.76269
1274.76238,0.76369
1272.83385,0.76486
1270.90531,0.76445
1268.97677,0.76444
1267.04824,0.76730
1265.11970,0.77312
1263.19117,0.78086
1261.26263,0.79013
1259.33409,0.80010
1257.40556,0.80879
1255.47702,0.81466
1253.54849,0.81711
1251.61995,0.81650
1249.69141,0.81469
1247.76288,0.81445
1245.83434,0.81722
1243.90580,0.82183
1241.97727,0.82586
1240.04873,0.82788
1238.12020,0.82789
1236.19166,0.82569
1234.26312,0.81876
1232.33459,0.80233
1230.40605,0.77352
1228.47752,0.73642
1226.54898,0.70171
1224.62044,0.68129
1222.69191,0.68190
1220.76337,0.70114
1218.83483,0.72971
1216.90630,0.75778
1214.97776,0.78042
1213.04923,0.79761
1211.12069,0.81070
1209.19215,0.82072
1207.26362,0.82840
1205.33508,0.83415
1203.40655,0.83821
1201.47801,0.84084
1199.54947,0.84207
1197.62094,0.84150
1195.69240,0.83876
1193.76387,0.83407
1191.83533,0.82840
1189.90679,0.82296
1187.97826,0.81865
1186.04972,0.81620
1184.12118,0.81653
1182.19265,0.82008
1180.26411,0.82572
1178.33558,0.83124
1176.40704,0.83483
1174.47850,0.83555
1172.54997,0.83277
1170.62143,0.82638
1168.69290,0.81726
1166.76436,0.80714
1164.83582,0.79740
1162.90729,0.78846
1160.97875,0.78101
1159.05021,0.77695
1157.12168,0.77809
1155.19314,0.78450
1153.26461,0.79417
1151.33607,0.80418
1149.40753,0.81286
1147.47900,0.82039
1145.55046,0.82746
1143.62193,0.83418
1141.69339,0.84014
1139.76485,0.84470
1137.83632,0.84728
1135.90778,0.84767
1133.97924,0.84612
1132.05071,0.84322
1130.12217,0.83983
1128.19364,0.83691
1126.26510,0.83546
1124.33656,0.83609
1122.40803,0.83858
1120.47949,0.84209
1118.55096,0.84510
1116.62242,0.84541
1114.69388,0.84027
1112.76535,0.82703
1110.83681,0.80495
1108.90828,0.77723
1106.97974,0.75038
1105.05120,0.73048
1103.12267,0.72030
1101.19413,0.71989
1099.26559,0.72825
1097.33706,0.74322
1095.40852,0.76078
1093.47999,0.77655
1091.55145,0.78911
1089.62291,0.80025
1087.69438,0.81148
1085.76584,0.82170
1083.83731,0.82861
1081.90877,0.83017
1079.98023,0.82377
1078.05170,0.80630
1076.12316,0.77824
1074.19462,0.74696
1072.26609,0.72323
1070.33755,0.71467
1068.40902,0.72256
1066.48048,0.74213
1064.55194,0.76579
1062.62341,0.78765
1060.69487,0.80525
1058.76634,0.81816
1056.83780,0.82660
1054.90926,0.83107
1052.98073,0.83193
1051.05219,0.82913
1049.12366,0.82278
1047.19512,0.81365
1045.26658,0.80376
1043.33805,0.79613
1041.40951,0.79329
1039.48097,0.79592
1037.55244,0.80248
1035.62390,0.81000
1033.69537,0.81531
1031.76683,0.81566
1029.83829,0.80973
1027.90976,0.79967
1025.98122,0.78946
1024.05269,0.78023
1022.12415,0.77097
1020.19561,0.76220
1018.26708,0.75495
1016.33854,0.74841
1014.41000,0.74278
1012.48147,0.74204
1010.55293,0.74968
1008.62440,0.76276
1006.69586,0.77344
1004.76732,0.77488
1002.83879,0.76504
1000.91025,0.74831
998.98172,0.73486
997.05318,0.73365
995.12464,0.74420
993.19611,0.75928
991.26757,0.77388
989.33904,0.78723
987.41050,0.79946
985.48196,0.81031
983.55343,0.81930
981.62489,0.82595
979.69635,0.82998
977.76782,0.83137
975.83928,0.83023
973.91075,0.82667
971.98221,0.82046
970.05367,0.81090
968.12514,0.79761
966.19660,0.78175
964.26807,0.76649
962.33953,0.75598
960.41099,0.75342
958.48246,0.75935
956.55392,0.77164
954.62538,0.78683
952.69685,0.80178
950.76831,0.81472
948.83978,0.82508
946.91124,0.83295
944.98270,0.83871
943.05417,0.84248
941.12563,0.84393
939.19710,0.84291
937.26856,0.84012
935.34002,0.83635
933.41149,0.83192
931.48295,0.82709
929.55442,0.82185
927.62588,0.81542
925.69734,0.80706
923.76881,0.79707
921.84027,0.78686
919.91173,0.77872
917.98320,0.77495
916.05466,0.77556
914.12613,0.77774
912.19759,0.77901
910.26905,0.77993
908.34052,0.78282
906.41198,0.78934
904.48345,0.79954
902.55491,0.81203
900.62637,0.82466
898.69784,0.83551
896.76930,0.84379
894.84076,0.84971
892.91223,0.85345
890.98369,0.85460
889.05516,0.85254
887.12662,0.84656
885.19808,0.83607
883.26955,0.82134
881.34101,0.80447
879.41248,0.78936
877.48394,0.77944
875.55540,0.77613
873.62687,0.77919
871.69833,0.78692
869.76980,0.79688
867.84126,0.80719
865.91272,0.81673
863.98419,0.82488
862.05565,0.83119
860.12711,0.83540
858.19858,0.83791
856.27004,0.83988
854.34151,0.84258
852.41297,0.84645
850.48443,0.85094
848.55590,0.85537
846.62736,0.85944
844.69883,0.86323
842.77029,0.86714
840.84175,0.87136
838.91322,0.87520
836.98468,0.87725
835.05614,0.87622
833.12761,0.87110
831.19907,0.86110
829.27054,0.84603
827.34200,0.82701
825.41346,0.80721
823.48493,0.79147
821.55639,0.78321
819.62786,0.78229
817.69932,0.78636
815.77078,0.79300
813.84225,0.80036
811.91371,0.80719
809.98517,0.81298
808.05664,0.81802
806.12810,0.82322
804.19957,0.82946
802.27103,0.83697
800.34249,0.84522
798.41396,0.85330
796.48542,0.86058
794.55689,0.86593
792.62835,0.86710
790.69981,0.86378
788.77128,0.85956
786.84274,0.85708
784.91421,0.85617
782.98567,0.85643
781.05713,0.85213
779.12860,0.83467
777.20006,0.80995
775.27152,0.79824
773.34299,0.81052
771.41445,0.83580
769.48592,0.85567
767.55738,0.86273
765.62884,0.86048
763.70031,0.85389
761.77177,0.84507
759.84324,0.83462
757.91470,0.82272
755.98616,0.80798
754.05763,0.78874
752.12909,0.76695
750.20055,0.74686
748.27202,0.73024
746.34348,0.71737
744.41495,0.70967
742.48641,0.70799
740.55787,0.71131
738.62934,0.71641
736.70080,0.71883
734.77227,0.71693
732.84373,0.71320
730.91519,0.71101
728.98666,0.71194
727.05812,0.71537
725.12959,0.71900
723.20105,0.71962
721.27251,0.71479
719.34398,0.70493
717.41544,0.69363
715.48690,0.68384
713.55837,0.67585
711.62983,0.66908
709.70130,0.66347
707.77276,0.65794
705.84422,0.64823
703.91569,0.63300
701.98715,0.61978
700.05862,0.61484
698.13008,0.61198
696.20154,0.59961
694.27301,0.57543
692.34447,0.55039
690.41593,0.54231
688.48740,0.56236
686.55886,0.60164
684.63033,0.63800
682.70179,0.65758
680.77325,0.66222
678.84472,0.66282
676.91618,0.66963
674.98765,0.68551
673.05911,0.70547
671.13057,0.72347
669.20204,0.74203
667.27350,0.76055
665.34497,0.76789
663.41643,0.76811
661.48789,0.76390
659.55936,0.75576
657.63082,0.74635
655.70228,0.73627
653.77375,0.72413
651.84521,0.71383
649.91668,0.71171
647.98814,0.71557
646.05960,0.71890
644.13107,0.72276
642.20253,0.73168
640.27400,0.74580
638.34546,0.76253
636.41692,0.77930
634.48839,0.79377
632.55985,0.80425
630.63131,0.81109
628.70278,0.81574
626.77424,0.81933
624.84571,0.82229
622.91717,0.82401
620.98863,0.82262
619.06010,0.81719
617.13156,0.81236
615.20303,0.81412
613.27449,0.81968
611.34595,0.82258
609.41742,0.82157
607.48888,0.81915
605.56035,0.81769
603.63181,0.81780
601.70327,0.81867
599.77474,0.81976
597.84620,0.82091
595.91766,0.82155
593.98913,0.82111
592.06059,0.81966
590.13206,0.81860
588.20352,0.81972
586.27498,0.82324
584.34645,0.82759
582.41791,0.83070
580.48938,0.83184
578.56084,0.83242
576.63230,0.83435
574.70377,0.83772
572.77523,0.84065
570.84669,0.84134
568.91816,0.83835
566.98962,0.83053
565.06109,0.81899
563.13255,0.80822
561.20401,0.80475
559.27548,0.81202
557.34694,0.82631
555.41841,0.84091
553.48987,0.85151
551.56133,0.85743
549.63280,0.85986
547.70426,0.86023
545.77573,0.86037
543.84719,0.86067
541.91865,0.85798
539.99012,0.84401
538.06158,0.80645
536.13304,0.73927
534.20451,0.65855
532.27597,0.59514
530.34744,0.56545
528.41890,0.56245
526.49036,0.57175
524.56183,0.58453
522.63329,0.59874
520.70476,0.61816
518.77622,0.64732
516.84768,0.68395
514.91915,0.71735
512.99061,0.74191
511.06207,0.75847
509.13354,0.76766
507.20500,0.77091
505.27647,0.77221
503.34793,0.77651
501.41939,0.78454
499.49086,0.79038
497.56232,0.78854
495.63379,0.77742
493.70525,0.75783
491.77671,0.73232
489.84818,0.70607
487.91964,0.68228
485.99110,0.66063
484.06257,0.64353
482.13403,0.63700
480.20550,0.64357
478.27696,0.66002
476.34842,0.67985
474.41989,0.69694
472.49135,0.70919
470.56282,0.71707
468.63428,0.72353
466.70574,0.73081
464.77721,0.73839
462.84867,0.74585
460.92014,0.75310
458.99160,0.76012
457.06306,0.76648
455.13453,0.76962
453.20599,0.76995
451.27745,0.76975
449.34892,0.77051
447.42038,0.77264
445.49185,0.77559
443.56331,0.77819
441.63477,0.77982
439.70624,0.78015
437.77770,0.77879
435.84917,0.77663
433.92063,0.77591
431.99209,0.77641
430.06356,0.77585
428.13502,0.77398
426.20648,0.77199
424.27795,0.77049
422.34941,0.77025
420.42088,0.77260
418.49234,0.77930
416.56380,0.78473
414.63527,0.78773
412.70673,0.79133
410.77820,0.79463
408.84966,0.79553
406.92112,0.79313
404.99259,0.78799
403.06405,0.78217
401.13552,0.77728
399.20698,0.77467
