3997.85540,0.88411
3995.92686,0.88401
3993.99833,0.88392
3992.06979,0.88382
3990.14125,0.88378
3988.21272,0.88386
3986.28418,0.88400
3984.35565,0.88407
3982.42711,0.88405
3980.49857,0.88401
3978.57004,0.88399
3976.64150,0.88388
3974.71297,0.88362
3972.78443,0.88344
3970.85589,0.88341
3968.92736,0.88348
3966.99882,0.88367
3965.07029,0.88380
3963.14175,0.88364
3961.21321,0.88344
3959.28468,0.88355
3957.35614,0.88376
3955.42760,0.88386
3953.49907,0.88389
3951.57053,0.88370
3949.64200,0.88326
3947.71346,0.88304
3945.78492,0.88332
3943.85639,0.88348
3941.92785,0.88340
3939.99932,0.88369
3938.07078,0.88416
3936.14224,0.88442
3934.21371,0.88427
3932.28517,0.88353
3930.35663,0.88303
3928.42810,0.88343
3926.49956,0.88378
3924.57103,0.88350
3922.64249,0.88348
3920.71395,0.88387
3918.78542,0.88373
3916.85688,0.88328
3914.92835,0.88353
3912.99981,0.88424
3911.07127,0.88477
3909.14274,0.88500
3907.21420,0.88486
3905.28566,0.88372
3903.35713,0.88201
3901.42859,0.88148
3899.50006,0.88177
3897.57152,0.88252
3895.64298,0.88358
3893.71445,0.88399
3891.78591,0.88326
3889.85738,0.88307
3887.92884,0.88366
3886.00030,0.88333
3884.07177,0.88246
3882.14323,0.88230
3880.21470,0.88225
3878.28616,0.88285
3876.35762,0.88369
3874.42909,0.88351
3872.50055,0.88268
3870.57201,0.88200
3868.64348,0.88190
3866.71494,0.88250
3864.78641,0.88245
3862.85787,0.88205
3860.92933,0.88291
3859.00080,0.88405
3857.07226,0.88455
3855.14373,0.88377
3853.21519,0.88070
3851.28665,0.88028
3849.35812,0.88241
3847.42958,0.88412
3845.50104,0.88478
3843.57251,0.88441
3841.64397,0.88352
3839.71544,0.88220
3837.78690,0.88082
3835.85836,0.88114
3833.92983,0.88233
3832.00129,0.88323
3830.07276,0.88383
3828.14422,0.88406
3826.21568,0.88387
3824.28715,0.88389
3822.35861,0.88342
3820.43008,0.88180
3818.50154,0.88190
3816.57300,0.88269
3814.64447,0.88321
3812.71593,0.88429
3810.78739,0.88528
3808.85886,0.88532
3806.93032,0.88423
3805.00179,0.88371
3803.07325,0.88368
3801.14471,0.88260
3799.21618,0.88249
3797.28764,0.88344
3795.35911,0.88420
3793.43057,0.88502
3791.50203,0.88576
3789.57350,0.88610
3787.64496,0.88601
3785.71642,0.88546
3783.78789,0.88506
3781.85935,0.88520
3779.93082,0.88499
3778.00228,0.88472
3776.07374,0.88528
3774.14521,0.88594
3772.21667,0.88599
3770.28814,0.88514
3768.35960,0.88432
3766.43106,0.88417
3764.50253,0.88430
3762.57399,0.88476
3760.64546,0.88473
3758.71692,0.88373
3756.78838,0.88353
3754.85985,0.88427
3752.93131,0.88406
3751.00277,0.88095
3749.07424,0.87880
3747.14570,0.87967
3745.21717,0.87993
3743.28863,0.87942
3741.36009,0.87992
3739.43156,0.88061
3737.50302,0.88003
3735.57449,0.87732
3733.64595,0.87528
3731.71741,0.87603
3729.78888,0.87739
3727.86034,0.87820
3725.93180,0.87824
3724.00327,0.87835
3722.07473,0.87918
3720.14620,0.88043
3718.21766,0.88195
3716.28912,0.88344
3714.36059,0.88420
3712.43205,0.88274
3710.50352,0.87954
3708.57498,0.87937
3706.64644,0.88078
3704.71791,0.88182
3702.78937,0.88209
3700.86084,0.88193
3698.93230,0.88215
3697.00376,0.88255
3695.07523,0.88287
3693.14669,0.88303
3691.21815,0.88240
3689.28962,0.88086
3687.36108,0.88117
3685.43255,0.88280
3683.50401,0.88407
3681.57547,0.88454
3679.64694,0.88435
3677.71840,0.88377
3675.78987,0.88224
3673.86133,0.88145
3671.93279,0.88194
3670.00426,0.88162
3668.07572,0.88212
3666.14718,0.88387
3664.21865,0.88506
3662.29011,0.88531
3660.36158,0.88523
3658.43304,0.88504
3656.50450,0.88441
3654.57597,0.88426
3652.64743,0.88483
3650.71890,0.88388
3648.79036,0.88029
3646.86182,0.88059
3644.93329,0.88280
3643.00475,0.88412
3641.07622,0.88454
3639.14768,0.88444
3637.21914,0.88411
3635.29061,0.88366
3633.36207,0.88324
3631.43353,0.88283
3629.50500,0.88117
3627.57646,0.87931
3625.64793,0.88030
3623.71939,0.88199
3621.79085,0.88308
3619.86232,0.88305
3617.93378,0.88259
3616.00525,0.88299
3614.07671,0.88336
3612.14817,0.88328
3610.21964,0.88304
3608.29110,0.88251
3606.36256,0.88265
3604.43403,0.88353
3602.50549,0.88379
3600.57696,0.88314
3598.64842,0.88268
3596.71988,0.88263
3594.79135,0.88253
3592.86281,0.88308
3590.93428,0.88417
3589.00574,0.88421
3587.07720,0.88292
3585.14867,0.88311
3583.22013,0.88450
3581.29160,0.88551
3579.36306,0.88582
3577.43452,0.88584
3575.50599,0.88602
3573.57745,0.88637
3571.64891,0.88669
3569.72038,0.88655
3567.79184,0.88506
3565.86331,0.88348
3563.93477,0.88409
3562.00623,0.88517
3560.07770,0.88580
3558.14916,0.88629
3556.22063,0.88662
3554.29209,0.88641
3552.36355,0.88584
3550.43502,0.88583
3548.50648,0.88606
3546.57794,0.88554
3544.64941,0.88493
3542.72087,0.88543
3540.79234,0.88634
3538.86380,0.88669
3536.93526,0.88643
3535.00673,0.88630
3533.07819,0.88654
3531.14966,0.88647
3529.22112,0.88583
3527.29258,0.88528
3525.36405,0.88519
3523.43551,0.88527
3521.50697,0.88560
3519.57844,0.88609
3517.64990,0.88641
3515.72137,0.88656
3513.79283,0.88664
3511.86429,0.88650
3509.93576,0.88609
3508.00722,0.88592
3506.07869,0.88608
3504.15015,0.88585
3502.22161,0.88541
3500.29308,0.88563
3498.36454,0.88609
3496.43601,0.88630
3494.50747,0.88651
3492.57893,0.88686
3490.65040,0.88701
3488.72186,0.88677
3486.79332,0.88652
3484.86479,0.88648
3482.93625,0.88635
3481.00772,0.88618
3479.07918,0.88641
3477.15064,0.88683
3475.22211,0.88703
3473.29357,0.88707
3471.36504,0.88705
3469.43650,0.88696
3467.50796,0.88692
3465.57943,0.88699
3463.65089,0.88699
3461.72235,0.88688
3459.79382,0.88694
3457.86528,0.88713
3455.93675,0.88726
3454.00821,0.88737
3452.07967,0.88757
3450.15114,0.88765
3448.22260,0.88740
3446.29407,0.88716
3444.36553,0.88726
3442.43699,0.88740
3440.50846,0.88749
3438.57992,0.88765
3436.65139,0.88774
3434.72285,0.88778
3432.79431,0.88782
3430.86578,0.88782
3428.93724,0.88787
3427.00870,0.88790
3425.08017,0.88779
3423.15163,0.88760
3421.22310,0.88742
3419.29456,0.88746
3417.36602,0.88774
3415.43749,0.88791
3413.50895,0.88791
3411.58042,0.88794
3409.65188,0.88800
3407.72334,0.88802
3405.79481,0.88805
3403.86627,0.88810
3401.93773,0.88809
3400.00920,0.88801
3398.08066,0.88792
3396.15213,0.88792
3394.22359,0.88795
3392.29505,0.88793
3390.36652,0.88803
3388.43798,0.88822
3386.50945,0.88831
3384.58091,0.88829
3382.65237,0.88833
3380.72384,0.88846
3378.79530,0.88854
3376.86677,0.88852
3374.93823,0.88849
3373.00969,0.88849
3371.08116,0.88848
3369.15262,0.88846
3367.22408,0.88838
3365.29555,0.88832
3363.36701,0.88836
3361.43848,0.88846
3359.50994,0.88856
3357.58140,0.88862
3355.65287,0.88863
3353.72433,0.88864
3351.79580,0.88866
3349.86726,0.88868
3347.93872,0.88874
3346.01019,0.88882
3344.08165,0.88885
3342.15311,0.88881
3340.22458,0.88877
3338.29604,0.88874
3336.36751,0.88866
3334.43897,0.88865
3332.51043,0.88878
3330.58190,0.88891
3328.65336,0.88890
3326.72483,0.88882
3324.79629,0.88879
3322.86775,0.88888
3320.93922,0.88906
3319.01068,0.88917
3317.08215,0.88911
3315.15361,0.88898
3313.22507,0.88889
3311.29654,0.88886
3309.36800,0.88885
3307.43946,0.88885
3305.51093,0.88896
3303.58239,0.88915
3301.65386,0.88926
3299.72532,0.88921
3297.79678,0.88907
3295.86825,0.88896
3293.93971,0.88893
3292.01118,0.88894
3290.08264,0.88900
3288.15410,0.88906
3286.22557,0.88906
3284.29703,0.88905
3282.36849,0.88908
3280.43996,0.88910
3278.51142,0.88904
3276.58289,0.88894
3274.65435,0.88890
3272.72581,0.88894
3270.79728,0.88902
3268.86874,0.88906
3266.94021,0.88901
3265.01167,0.88890
3263.08313,0.88876
3261.15460,0.88865
3259.22606,0.88862
3257.29753,0.88859
3255.36899,0.88849
3253.44045,0.88844
3251.51192,0.88854
3249.58338,0.88867
3247.65484,0.88863
3245.72631,0.88840
3243.79777,0.88831
3241.86924,0.88847
3239.94070,0.88862
3238.01216,0.88866
3236.08363,0.88875
3234.15509,0.88889
3232.22656,0.88892
3230.29802,0.88884
3228.36948,0.88885
3226.44095,0.88896
3224.51241,0.88898
3222.58387,0.88886
3220.65534,0.88873
3218.72680,0.88873
3216.79827,0.88885
3214.86973,0.88890
3212.94119,0.88885
3211.01266,0.88880
3209.08412,0.88882
3207.15559,0.88884
3205.22705,0.88881
3203.29851,0.88879
3201.36998,0.88879
3199.44144,0.88876
3197.51290,0.88875
3195.58437,0.88874
3193.65583,0.88868
3191.72730,0.88857
3189.79876,0.88845
3187.87022,0.88821
3185.94169,0.88789
3184.01315,0.88771
3182.08462,0.88774
3180.15608,0.88788
3178.22754,0.88809
3176.29901,0.88831
3174.37047,0.88843
3172.44194,0.88845
3170.51340,0.88848
3168.58486,0.88852
3166.65633,0.88856
3164.72779,0.88858
3162.79925,0.88858
3160.87072,0.88857
3158.94218,0.88853
3157.01365,0.88847
3155.08511,0.88842
3153.15657,0.88836
3151.22804,0.88827
3149.29950,0.88820
3147.37097,0.88805
3145.44243,0.88781
3143.51389,0.88755
3141.58536,0.88733
3139.65682,0.88713
3137.72828,0.88697
3135.79975,0.88686
3133.87121,0.88673
3131.94268,0.88659
3130.01414,0.88645
3128.08560,0.88623
3126.15707,0.88588
3124.22853,0.88540
3122.30000,0.88478
3120.37146,0.88405
3118.44292,0.88324
3116.51439,0.88254
3114.58585,0.88218
3112.65732,0.88214
3110.72878,0.88225
3108.80024,0.88241
3106.87171,0.88263
3104.94317,0.88287
3103.01463,0.88310
3101.08610,0.88333
3099.15756,0.88356
3097.22903,0.88364
3095.30049,0.88359
3093.37195,0.88343
3091.44342,0.88300
3089.51488,0.88213
3087.58635,0.88083
3085.65781,0.87910
3083.72927,0.87693
3081.80074,0.87450
3079.87220,0.87224
3077.94366,0.87066
3076.01513,0.86988
3074.08659,0.86956
3072.15806,0.86931
3070.22952,0.86881
3068.30098,0.86779
3066.37245,0.86621
3064.44391,0.86443
3062.51538,0.86284
3060.58684,0.86146
3058.65830,0.86023
3056.72977,0.85960
3054.80123,0.86023
3052.87270,0.86200
3050.94416,0.86402
3049.01562,0.86579
3047.08709,0.86741
3045.15855,0.86899
3043.23001,0.87051
3041.30148,0.87188
3039.37294,0.87285
3037.44441,0.87307
3035.51587,0.87236
3033.58733,0.87094
3031.65880,0.86930
3029.73026,0.86801
3027.80173,0.86739
3025.87319,0.86725
3023.94465,0.86718
3022.01612,0.86702
3020.08758,0.86683
3018.15904,0.86679
3016.23051,0.86722
3014.30197,0.86801
3012.37344,0.86859
3010.44490,0.86853
3008.51636,0.86792
3006.58783,0.86713
3004.65929,0.86645
3002.73076,0.86599
3000.80222,0.86590
2998.87368,0.86619
2996.94515,0.86654
2995.01661,0.86679
2993.08808,0.86695
2991.15954,0.86664
2989.23100,0.86584
2987.30247,0.86483
2985.37393,0.86333
2983.44539,0.86116
2981.51686,0.85950
2979.58832,0.85949
2977.65979,0.86065
2975.73125,0.86182
2973.80271,0.86212
2971.87418,0.86152
2969.94564,0.86099
2968.01711,0.86102
2966.08857,0.86127
2964.16003,0.86153
2962.23150,0.86161
2960.30296,0.86147
2958.37442,0.86144
2956.44589,0.86179
2954.51735,0.86252
2952.58882,0.86336
2950.66028,0.86409
2948.73174,0.86469
2946.80321,0.86498
2944.87467,0.86457
2942.94614,0.86325
2941.01760,0.86122
2939.08906,0.85892
2937.16053,0.85668
2935.23199,0.85447
2933.30346,0.85217
2931.37492,0.84978
2929.44638,0.84737
2927.51785,0.84527
2925.58931,0.84407
2923.66077,0.84413
2921.73224,0.84536
2919.80370,0.84746
2917.87517,0.85000
2915.94663,0.85259
2914.01809,0.85502
2912.08956,0.85713
2910.16102,0.85888
2908.23249,0.86028
2906.30395,0.86142
2904.37541,0.86241
2902.44688,0.86326
2900.51834,0.86407
2898.58980,0.86496
2896.66127,0.86582
2894.73273,0.86632
2892.80420,0.86650
2890.87566,0.86677
2888.94712,0.86726
2887.01859,0.86788
2885.09005,0.86859
2883.16152,0.86940
2881.23298,0.87021
2879.30444,0.87087
2877.37591,0.87133
2875.44737,0.87152
2873.51883,0.87140
2871.59030,0.87108
2869.66176,0.87083
2867.73323,0.87069
2865.80469,0.87048
2863.87615,0.87005
2861.94762,0.86931
2860.01908,0.86820
2858.09055,0.86681
2856.16201,0.86551
2854.23347,0.86471
2852.30494,0.86472
2850.37640,0.86572
2848.44787,0.86740
2846.51933,0.86914
2844.59079,0.87076
2842.66226,0.87252
2840.73372,0.87440
2838.80518,0.87600
2836.87665,0.87709
2834.94811,0.87787
2833.01958,0.87850
2831.09104,0.87900
2829.16250,0.87949
2827.23397,0.88001
2825.30543,0.88049
2823.37690,0.88083
2821.44836,0.88105
2819.51982,0.88122
2817.59129,0.88133
2815.66275,0.88136
2813.73421,0.88144
2811.80568,0.88171
2809.87714,0.88204
2807.94861,0.88227
2806.02007,0.88247
2804.09153,0.88273
2802.16300,0.88302
2800.23446,0.88332
2798.30593,0.88358
2796.37739,0.88380
2794.44885,0.88402
2792.52032,0.88430
2790.59178,0.88461
2788.66325,0.88486
2786.73471,0.88501
2784.80617,0.88515
2782.87764,0.88527
2780.94910,0.88531
2779.02056,0.88537
2777.09203,0.88553
2775.16349,0.88569
2773.23496,0.88572
2771.30642,0.88568
2769.37788,0.88571
2767.44935,0.88580
2765.52081,0.88584
2763.59228,0.88584
2761.66374,0.88586
2759.73520,0.88588
2757.80667,0.88579
2755.87813,0.88561
2753.94959,0.88554
2752.02106,0.88564
2750.09252,0.88579
2748.16399,0.88580
2746.23545,0.88573
2744.30691,0.88568
2742.37838,0.88567
2740.44984,0.88567
2738.52131,0.88566
2736.59277,0.88563
2734.66423,0.88562
2732.73570,0.88569
2730.80716,0.88587
2728.87863,0.88615
2726.95009,0.88643
2725.02155,0.88657
2723.09302,0.88656
2721.16448,0.88654
2719.23594,0.88659
2717.30741,0.88665
2715.37887,0.88669
2713.45034,0.88672
2711.52180,0.88679
2709.59326,0.88691
2707.66473,0.88701
2705.73619,0.88713
2703.80766,0.88728
2701.87912,0.88739
2699.95058,0.88745
2698.02205,0.88757
2696.09351,0.88771
2694.16497,0.88778
2692.23644,0.88776
2690.30790,0.88770
2688.37937,0.88769
2686.45083,0.88770
2684.52229,0.88767
2682.59376,0.88757
2680.66522,0.88747
2678.73669,0.88742
2676.80815,0.88742
2674.87961,0.88742
2672.95108,0.88737
2671.02254,0.88730
2669.09401,0.88728
2667.16547,0.88730
2665.23693,0.88730
2663.30840,0.88733
2661.37986,0.88744
2659.45132,0.88761
2657.52279,0.88774
2655.59425,0.88780
2653.66572,0.88780
2651.73718,0.88781
2649.80864,0.88785
2647.88011,0.88792
2645.95157,0.88794
2644.02304,0.88782
2642.09450,0.88757
2640.16596,0.88738
2638.23743,0.88738
2636.30889,0.88747
2634.38035,0.88749
2632.45182,0.88746
2630.52328,0.88752
2628.59475,0.88763
2626.66621,0.88768
2624.73767,0.88764
2622.80914,0.88763
2620.88060,0.88775
2618.95207,0.88808
2617.02353,0.88854
2615.09499,0.88898
2613.16646,0.88933
2611.23792,0.88962
2609.30939,0.88991
2607.38085,0.89022
2605.45231,0.89047
2603.52378,0.89062
2601.59524,0.89077
2599.66670,0.89092
2597.73817,0.89097
2595.80963,0.89092
2593.88110,0.89087
2591.95256,0.89075
2590.02402,0.89055
2588.09549,0.89033
2586.16695,0.89011
2584.23842,0.88993
2582.30988,0.88983
2580.38134,0.88976
2578.45281,0.88977
2576.52427,0.88990
2574.59573,0.89005
2572.66720,0.89013
2570.73866,0.89023
2568.81013,0.89040
2566.88159,0.89056
2564.95305,0.89073
2563.02452,0.89097
2561.09598,0.89134
2559.16745,0.89175
2557.23891,0.89206
2555.31037,0.89224
2553.38184,0.89228
2551.45330,0.89220
2549.52476,0.89213
2547.59623,0.89218
2545.66769,0.89228
2543.73916,0.89224
2541.81062,0.89211
2539.88208,0.89199
2537.95355,0.89197
2536.02501,0.89201
2534.09648,0.89191
2532.16794,0.89167
2530.23940,0.89148
2528.31087,0.89145
2526.38233,0.89152
2524.45380,0.89161
2522.52526,0.89169
2520.59672,0.89187
2518.66819,0.89215
2516.73965,0.89235
2514.81111,0.89248
2512.88258,0.89266
2510.95404,0.89284
2509.02551,0.89289
2507.09697,0.89277
2505.16843,0.89265
2503.23990,0.89263
2501.31136,0.89260
2499.38283,0.89260
2497.45429,0.89270
2495.52575,0.89283
2493.59722,0.89295
2491.66868,0.89305
2489.74014,0.89313
2487.81161,0.89324
2485.88307,0.89344
2483.95454,0.89364
2482.02600,0.89368
2480.09746,0.89364
2478.16893,0.89375
2476.24039,0.89398
2474.31186,0.89414
2472.38332,0.89418
2470.45478,0.89421
2468.52625,0.89425
2466.59771,0.89427
2464.66918,0.89419
2462.74064,0.89399
2460.81210,0.89375
2458.88357,0.89351
2456.95503,0.89320
2455.02649,0.89290
2453.09796,0.89284
2451.16942,0.89294
2449.24089,0.89297
2447.31235,0.89294
2445.38381,0.89291
2443.45528,0.89292
2441.52674,0.89297
2439.59821,0.89305
2437.66967,0.89322
2435.74113,0.89343
2433.81260,0.89351
2431.88406,0.89349
2429.95552,0.89355
2428.02699,0.89359
2426.09845,0.89352
2424.16992,0.89342
2422.24138,0.89338
2420.31284,0.89329
2418.38431,0.89319
2416.45577,0.89307
2414.52724,0.89272
2412.59870,0.89200
2410.67016,0.89114
2408.74163,0.89061
2406.81309,0.89065
2404.88456,0.89111
2402.95602,0.89162
2401.02748,0.89204
2399.09895,0.89244
2397.17041,0.89277
2395.24187,0.89294
2393.31334,0.89308
2391.38480,0.89315
2389.45627,0.89286
2387.52773,0.89187
2385.59919,0.88979
2383.67066,0.88635
2381.74212,0.88166
2379.81359,0.87606
2377.88505,0.86963
2375.95651,0.86215
2374.02798,0.85355
2372.09944,0.84402
2370.17090,0.83380
2368.24237,0.82360
2366.31383,0.81419
2364.38530,0.80642
2362.45676,0.80123
2360.52822,0.79896
2358.59969,0.80010
2356.67115,0.80587
2354.74262,0.81567
2352.81408,0.82761
2350.88554,0.83851
2348.95701,0.84397
2347.02847,0.84179
2345.09994,0.83315
2343.17140,0.82510
2341.24286,0.82304
2339.31433,0.82447
2337.38579,0.82641
2335.45725,0.82821
2333.52872,0.82978
2331.60018,0.83107
2329.67165,0.83265
2327.74311,0.83477
2325.81457,0.83736
2323.88604,0.84074
2321.95750,0.84528
2320.02897,0.85064
2318.10043,0.85588
2316.17189,0.86008
2314.24336,0.86297
2312.31482,0.86515
2310.38628,0.86759
2308.45775,0.87072
2306.52921,0.87431
2304.60068,0.87760
2302.67214,0.87999
2300.74360,0.88180
2298.81507,0.88352
2296.88653,0.88513
2294.95800,0.88666
2293.02946,0.88826
2291.10092,0.88983
2289.17239,0.89136
2287.24385,0.89294
2285.31532,0.89439
2283.38678,0.89533
2281.45824,0.89554
2279.52971,0.89531
2277.60117,0.89506
2275.67263,0.89490
2273.74410,0.89482
2271.81556,0.89493
2269.88703,0.89529
2267.95849,0.89572
2266.02995,0.89599
2264.10142,0.89607
2262.17288,0.89618
2260.24435,0.89652
2258.31581,0.89693
2256.38727,0.89715
2254.45874,0.89723
2252.53020,0.89733
2250.60166,0.89754
2248.67313,0.89781
2246.74459,0.89816
2244.81606,0.89864
2242.88752,0.89918
2240.95898,0.89968
2239.03045,0.90021
2237.10191,0.90083
2235.17338,0.90145
2233.24484,0.90190
2231.31630,0.90221
2229.38777,0.90246
2227.45923,0.90266
2225.53070,0.90274
2223.60216,0.90290
2221.67362,0.90332
2219.74509,0.90382
2217.81655,0.90420
2215.88801,0.90440
2213.95948,0.90448
2212.03094,0.90461
2210.10241,0.90493
2208.17387,0.90524
2206.24533,0.90535
2204.31680,0.90530
2202.38826,0.90532
2200.45973,0.90554
2198.53119,0.90568
2196.60265,0.90553
2194.67412,0.90533
2192.74558,0.90526
2190.81704,0.90509
2188.88851,0.90487
2186.95997,0.90524
2185.03144,0.90627
2183.10290,0.90722
2181.17436,0.90775
2179.24583,0.90816
2177.31729,0.90855
2175.38876,0.90863
2173.46022,0.90851
2171.53168,0.90844
2169.60315,0.90850
2167.67461,0.90871
2165.74607,0.90891
2163.81754,0.90919
2161.88900,0.91022
2159.96047,0.91209
2158.03193,0.91326
2156.10339,0.91291
2154.17486,0.91189
2152.24632,0.91075
2150.31779,0.90976
2148.38925,0.90929
2146.46071,0.90922
2144.53218,0.90917
2142.60364,0.90915
2140.67511,0.90909
2138.74657,0.90880
2136.81803,0.90851
2134.88950,0.90840
2132.96096,0.90808
2131.03242,0.90748
2129.10389,0.90704
2127.17535,0.90676
2125.24682,0.90645
2123.31828,0.90612
2121.38974,0.90573
2119.46121,0.90531
2117.53267,0.90505
2115.60414,0.90495
2113.67560,0.90497
2111.74706,0.90520
2109.81853,0.90550
2107.88999,0.90570
2105.96145,0.90585
2104.03292,0.90599
2102.10438,0.90607
2100.17585,0.90598
2098.24731,0.90584
2096.31877,0.90606
2094.39024,0.90647
2092.46170,0.90653
2090.53317,0.90634
2088.60463,0.90643
2086.67609,0.90682
2084.74756,0.90710
2082.81902,0.90706
2080.89049,0.90688
2078.96195,0.90677
2077.03341,0.90672
2075.10488,0.90671
2073.17634,0.90686
2071.24780,0.90720
2069.31927,0.90762
2067.39073,0.90802
2065.46220,0.90826
2063.53366,0.90839
2061.60512,0.90851
2059.67659,0.90854
2057.74805,0.90861
2055.81952,0.90888
2053.89098,0.90895
2051.96244,0.90882
2050.03391,0.90921
2048.10537,0.90999
2046.17683,0.91051
2044.24830,0.91085
2042.31976,0.91115
2040.39123,0.91156
2038.46269,0.91209
2036.53415,0.91237
2034.60562,0.91254
2032.67708,0.91293
2030.74855,0.91342
2028.82001,0.91373
2026.89147,0.91391
2024.96294,0.91434
2023.03440,0.91486
2021.10587,0.91500
2019.17733,0.91480
2017.24879,0.91470
2015.32026,0.91501
2013.39172,0.91554
2011.46318,0.91601
2009.53465,0.91640
2007.60611,0.91676
2005.67758,0.91684
2003.74904,0.91632
2001.82050,0.91527
1999.89197,0.91423
1997.96343,0.91359
1996.03490,0.91323
1994.10636,0.91295
1992.17782,0.91271
1990.24929,0.91247
1988.32075,0.91215
1986.39221,0.91170
1984.46368,0.91099
1982.53514,0.91014
1980.60661,0.91003
1978.67807,0.91121
1976.74953,0.91282
1974.82100,0.91407
1972.89246,0.91489
1970.96393,0.91516
1969.03539,0.91484
1967.10685,0.91410
1965.17832,0.91355
1963.24978,0.91351
1961.32125,0.91370
1959.39271,0.91373
1957.46417,0.91318
1955.53564,0.91212
1953.60710,0.91119
1951.67856,0.91066
1949.75003,0.91045
1947.82149,0.91056
1945.89296,0.91044
1943.96442,0.90942
1942.03588,0.90799
1940.10735,0.90733
1938.17881,0.90742
1936.25028,0.90786
1934.32174,0.90851
1932.39320,0.90912
1930.46467,0.90946
1928.53613,0.90956
1926.60759,0.90952
1924.67906,0.90917
1922.75052,0.90854
1920.82199,0.90826
1918.89345,0.90807
1916.96491,0.90768
1915.03638,0.90764
1913.10784,0.90797
1911.17931,0.90826
1909.25077,0.90838
1907.32223,0.90869
1905.39370,0.90928
1903.46516,0.90975
1901.53663,0.90983
1899.60809,0.90963
1897.67955,0.90923
1895.75102,0.90862
1893.82248,0.90813
1891.89394,0.90789
1889.96541,0.90771
1888.03687,0.90788
1886.10834,0.90835
1884.17980,0.90855
1882.25126,0.90850
1880.32273,0.90853
1878.39419,0.90878
1876.46566,0.90929
1874.53712,0.90985
1872.60858,0.91001
1870.68005,0.90939
1868.75151,0.90817
1866.82297,0.90805
1864.89444,0.90893
1862.96590,0.90948
1861.03737,0.90950
1859.10883,0.90933
1857.18029,0.90921
1855.25176,0.90920
1853.32322,0.90934
1851.39469,0.90947
1849.46615,0.90928
1847.53761,0.90864
1845.60908,0.90766
1843.68054,0.90690
1841.75200,0.90689
1839.82347,0.90672
1837.89493,0.90578
1835.96640,0.90474
1834.03786,0.90444
1832.10932,0.90468
1830.18079,0.90520
1828.25225,0.90620
1826.32372,0.90731
1824.39518,0.90820
1822.46664,0.90907
1820.53811,0.90984
1818.60957,0.91026
1816.68104,0.91032
1814.75250,0.91011
1812.82396,0.90965
1810.89543,0.90917
1808.96689,0.90912
1807.03835,0.90928
1805.10982,0.90911
1803.18128,0.90830
1801.25275,0.90706
1799.32421,0.90635
1797.39567,0.90638
1795.46714,0.90648
1793.53860,0.90618
1791.61007,0.90593
1789.68153,0.90670
1787.75299,0.90767
1785.82446,0.90816
1783.89592,0.90831
1781.96738,0.90840
1780.03885,0.90848
1778.11031,0.90866
1776.18178,0.90866
1774.25324,0.90804
1772.32470,0.90687
1770.39617,0.90649
1768.46763,0.90678
1766.53910,0.90696
1764.61056,0.90704
1762.68202,0.90699
1760.75349,0.90713
1758.82495,0.90758
1756.89642,0.90796
1754.96788,0.90826
1753.03934,0.90811
1751.11081,0.90687
1749.18227,0.90517
1747.25373,0.90490
1745.32520,0.90540
1743.39666,0.90569
1741.46813,0.90563
1739.53959,0.90541
1737.61105,0.90544
1735.68252,0.90523
1733.75398,0.90421
1731.82545,0.90413
1729.89691,0.90518
1727.96837,0.90626
1726.03984,0.90701
1724.11130,0.90724
1722.18276,0.90708
1720.25423,0.90643
1718.32569,0.90348
1716.39716,0.89712
1714.46862,0.89344
1712.54008,0.89220
1710.61155,0.89138
1708.68301,0.89105
1706.75448,0.89195
1704.82594,0.89455
1702.89740,0.89740
1700.96887,0.89951
1699.04033,0.90084
1697.11180,0.90210
1695.18326,0.90427
1693.25472,0.90622
1691.32619,0.90733
1689.39765,0.90789
1687.46911,0.90833
1685.54058,0.90865
1683.61204,0.90891
1681.68351,0.90991
1679.75497,0.91111
1677.82643,0.91189
1675.89790,0.91209
1673.96936,0.91222
1672.04083,0.91250
1670.11229,0.91276
1668.18375,0.91380
1666.25522,0.91494
1664.32668,0.91524
1662.39814,0.91498
1660.46961,0.91536
1658.54107,0.91600
1656.61254,0.91610
1654.68400,0.91519
1652.75546,0.91365
1650.82693,0.91382
1648.89839,0.91370
1646.96986,0.91289
1645.04132,0.91374
1643.11278,0.91513
1641.18425,0.91571
1639.25571,0.91525
1637.32718,0.91268
1635.39864,0.90583
1633.47010,0.89865
1631.54157,0.89204
1629.61303,0.88413
1627.68449,0.87676
1625.75596,0.87261
1623.82742,0.87013
1621.89889,0.86994
1619.97035,0.87306
1618.04181,0.87778
1616.11328,0.88289
1614.18474,0.88615
1612.25621,0.88745
1610.32767,0.88748
1608.39913,0.88762
1606.47060,0.88916
1604.54206,0.89116
1602.61352,0.89192
1600.68499,0.88974
1598.75645,0.88215
1596.82792,0.86571
1594.89938,0.84131
1592.97084,0.82276
1591.04231,0.82388
1589.11377,0.84186
1587.18524,0.86342
1585.25670,0.87976
1583.32816,0.89046
1581.39963,0.89726
1579.47109,0.90086
1577.54256,0.90088
1575.61402,0.89602
1573.68548,0.89091
1571.75695,0.88712
1569.82841,0.88332
1567.89987,0.88110
1565.97134,0.87927
1564.04280,0.87710
1562.11427,0.87623
1560.18573,0.87665
1558.25719,0.87771
1556.32866,0.88298
1554.40012,0.89155
1552.47159,0.89953
1550.54305,0.90501
1548.61451,0.90828
1546.68598,0.90973
1544.75744,0.90969
1542.82890,0.90899
1540.90037,0.91086
1538.97183,0.91607
1537.04330,0.91903
1535.11476,0.92025
1533.18622,0.92113
1531.25769,0.92142
1529.32915,0.92013
1527.40062,0.91676
1525.47208,0.91253
1523.54354,0.90963
1521.61501,0.90632
1519.68647,0.90230
1517.75793,0.89147
1515.82940,0.86948
1513.90086,0.84871
1511.97233,0.83606
1510.04379,0.83199
1508.11525,0.82919
1506.18672,0.79707
1504.25818,0.75684
1502.32965,0.71398
1500.40111,0.66328
1498.47257,0.62214
1496.54404,0.62181
1494.61550,0.64946
1492.68697,0.67474
1490.75843,0.69572
1488.82989,0.69705
1486.90136,0.66515
1484.97282,0.63149
1483.04428,0.61501
1481.11575,0.62316
1479.18721,0.64874
1477.25868,0.67784
1475.33014,0.70572
1473.40160,0.73483
1471.47307,0.76376
1469.54453,0.78243
1467.61600,0.79608
1465.68746,0.81055
1463.75892,0.82418
1461.83039,0.83209
1459.90185,0.83597
1457.97331,0.83798
1456.04478,0.83804
1454.11624,0.83331
1452.18771,0.81934
1450.25917,0.78919
1448.33063,0.73770
1446.40210,0.68963
1444.47356,0.67638
1442.54503,0.68846
1440.61649,0.70827
1438.68795,0.72782
1436.75942,0.74728
1434.83088,0.76095
1432.90235,0.76568
1430.97381,0.76628
1429.04527,0.76349
1427.11674,0.75461
1425.18820,0.73072
1423.25966,0.69300
1421.33113,0.66935
1419.40259,0.67957
1417.47406,0.71416
1415.54552,0.74088
1413.61698,0.75856
1411.68845,0.77179
1409.75991,0.77924
1407.83138,0.78218
1405.90284,0.78705
1403.97430,0.79860
1402.04577,0.81144
1400.11723,0.82142
1398.18869,0.82851
1396.26016,0.83180
1394.33162,0.83009
1392.40309,0.82456
1390.47455,0.81824
1388.54601,0.81391
1386.61748,0.81511
1384.68894,0.81965
1382.76041,0.82161
1380.83187,0.81794
1378.90333,0.80918
1376.97480,0.80078
1375.04626,0.79981
1373.11773,0.80895
1371.18919,0.82104
1369.26065,0.83181
1367.33212,0.84034
1365.40358,0.84568
1363.47504,0.84880
1361.54651,0.85051
1359.61797,0.84997
1357.68944,0.84520
1355.76090,0.83667
1353.83236,0.83145
1351.90383,0.83637
1349.97529,0.84833
1348.04676,0.86015
1346.11822,0.86867
1344.18968,0.87457
1342.26115,0.87905
1340.33261,0.88314
1338.40407,0.88770
1336.47554,0.89215
1334.54700,0.89587
1332.61847,0.89894
1330.68993,0.90119
1328.76139,0.90242
1326.83286,0.90216
1324.90432,0.90015
1322.97579,0.89660
1321.04725,0.89192
1319.11871,0.88570
1317.19018,0.87528
1315.26164,0.85625
1313.33311,0.82948
1311.40457,0.80997
1309.47603,0.80959
1307.54750,0.82065
1305.61896,0.83205
1303.69042,0.84098
1301.76189,0.84482
1299.83335,0.83806
1297.90482,0.81506
1295.97628,0.76580
1294.04774,0.68690
1292.11921,0.60182
1290.19067,0.55001
1288.26214,0.55285
1286.33360,0.59512
1284.40506,0.64524
1282.47653,0.68669
1280.54799,0.71730
1278.61945,0.73540
1276.69092,0.74253
1274.76238,0.74849
1272.83385,0.76034
1270.90531,0.77425
1268.97677,0.78468
1267.04824,0.79194
1265.11970,0.79789
1263.19117,0.80337
1261.26263,0.80924
1259.33409,0.81589
1257.40556,0.82221
1255.47702,0.82667
1253.54849,0.82832
1251.61995,0.82708
1249.69141,0.82549
1247.76288,0.82737
1245.83434,0.83188
1243.90580,0.83364
1241.97727,0.83126
1240.04873,0.83030
1238.12020,0.83520
1236.19166,0.84376
1234.26312,0.85175
1232.33459,0.85765
1230.40605,0.86149
1228.47752,0.86328
1226.54898,0.86287
1224.62044,0.85970
1222.69191,0.85326
1220.76337,0.84600
1218.83483,0.84383
1216.90630,0.84912
1214.97776,0.85670
1213.04923,0.86149
1211.12069,0.86370
1209.19215,0.86354
1207.26362,0.85825
1205.33508,0.84942
1203.40655,0.84573
1201.47801,0.85147
1199.54947,0.86110
1197.62094,0.86872
1195.69240,0.87353
1193.76387,0.87639
1191.83533,0.87735
1189.90679,0.87539
1187.97826,0.86927
1186.04972,0.86173
1184.12118,0.85987
1182.19265,0.86617
1180.26411,0.87535
1178.33558,0.88253
1176.40704,0.88734
1174.47850,0.89062
1172.54997,0.89241
1170.62143,0.89241
1168.69290,0.89070
1166.76436,0.88717
1164.83582,0.88020
1162.90729,0.86828
1160.97875,0.85616
1159.05021,0.85316
1157.12168,0.85927
1155.19314,0.86317
1153.26461,0.85851
1151.33607,0.85147
1149.40753,0.84845
1147.47900,0.84562
1145.55046,0.83834
1143.62193,0.83266
1141.69339,0.83625
1139.76485,0.84422
1137.83632,0.84297
1135.90778,0.82130
1133.97924,0.77187
1132.05071,0.69349
1130.12217,0.60063
1128.19364,0.52368
1126.26510,0.48978
1124.33656,0.50242
1122.40803,0.54075
1120.47949,0.57880
1118.55096,0.60686
1116.62242,0.63145
1114.69388,0.65960
1112.76535,0.69109
1110.83681,0.71981
1108.90828,0.74044
1106.97974,0.75496
1105.05120,0.76841
1103.12267,0.78192
1101.19413,0.79327
1099.26559,0.80126
1097.33706,0.80757
1095.40852,0.81449
1093.47999,0.82249
1091.55145,0.83038
1089.62291,0.83730
1087.69438,0.84326
1085.76584,0.84810
1083.83731,0.85081
1081.90877,0.84945
1079.98023,0.84185
1078.05170,0.82671
1076.12316,0.80332
1074.19462,0.76684
1072.26609,0.71403
1070.33755,0.66591
1068.40902,0.65741
1066.48048,0.69171
1064.55194,0.73949
1062.62341,0.77801
1060.69487,0.80279
1058.76634,0.81696
1056.83780,0.82489
1054.90926,0.82941
1052.98073,0.83001
1051.05219,0.82289
1049.12366,0.80236
1047.19512,0.76249
1045.26658,0.70825
1043.33805,0.66558
1041.40951,0.65915
1039.48097,0.68447
1037.55244,0.71983
1035.62390,0.75080
1033.69537,0.77365
1031.76683,0.78936
1029.83829,0.79887
1027.90976,0.80406
1025.98122,0.81108
1024.05269,0.82398
1022.12415,0.83791
1020.19561,0.84544
1018.26708,0.84324
1016.33854,0.82852
1014.41000,0.79583
1012.48147,0.74150
1010.55293,0.66979
1008.62440,0.59376
1006.69586,0.53359
1004.76732,0.50942
1002.83879,0.52541
1000.91025,0.56600
998.98172,0.61148
997.05318,0.64984
995.12464,0.67644
993.19611,0.69309
991.26757,0.70778
989.33904,0.72625
987.41050,0.74584
985.48196,0.76190
983.55343,0.77350
981.62489,0.78161
979.69635,0.78678
977.76782,0.78948
975.83928,0.79157
973.91075,0.79567
971.98221,0.80170
970.05367,0.80717
968.12514,0.81042
966.19660,0.81059
964.26807,0.80651
962.33953,0.79458
960.41099,0.76505
958.48246,0.71007
956.55392,0.64934
954.62538,0.62085
952.69685,0.63062
950.76831,0.65613
948.83978,0.68773
946.91124,0.72220
944.98270,0.74937
943.05417,0.76485
941.12563,0.77228
939.19710,0.77665
937.26856,0.78252
935.34002,0.79213
933.41149,0.80352
931.48295,0.81364
929.55442,0.82167
927.62588,0.82809
925.69734,0.83339
923.76881,0.83776
921.84027,0.84128
919.91173,0.84401
917.98320,0.84586
916.05466,0.84692
914.12613,0.84754
912.19759,0.84801
910.26905,0.84813
908.34052,0.84748
906.41198,0.84574
904.48345,0.84297
902.55491,0.83956
900.62637,0.83546
898.69784,0.83029
896.76930,0.82331
894.84076,0.81311
892.91223,0.79671
890.98369,0.77021
889.05516,0.73334
887.12662,0.69421
885.19808,0.66685
883.26955,0.66129
881.34101,0.67739
879.41248,0.70683
877.48394,0.73868
875.55540,0.76446
873.62687,0.77980
871.69833,0.78222
869.76980,0.76765
867.84126,0.73221
865.91272,0.68104
863.98419,0.63373
862.05565,0.61226
860.12711,0.62087
858.19858,0.63507
856.27004,0.62251
854.34151,0.59484
852.41297,0.59599
850.48443,0.63097
848.55590,0.67180
846.62736,0.70577
844.69883,0.73291
842.77029,0.75312
840.84175,0.76804
838.91322,0.78033
836.98468,0.79142
835.05614,0.80151
833.12761,0.81024
831.19907,0.81743
829.27054,0.82356
827.34200,0.82898
825.41346,0.83362
823.48493,0.83722
821.55639,0.83868
819.62786,0.83541
817.69932,0.82521
815.77078,0.81252
813.84225,0.80734
811.91371,0.81331
809.98517,0.82501
808.05664,0.83611
806.12810,0.84379
804.19957,0.84856
802.27103,0.85168
800.34249,0.85313
798.41396,0.85246
796.48542,0.84948
794.55689,0.84166
792.62835,0.81943
790.69981,0.77128
788.77128,0.70958
786.84274,0.67594
784.91421,0.69071
782.98567,0.72827
781.05713,0.76195
779.12860,0.78468
777.20006,0.78879
775.27152,0.76914
773.34299,0.73961
771.41445,0.72496
769.48592,0.73623
767.55738,0.76339
765.62884,0.79129
763.70031,0.81299
761.77177,0.82872
759.84324,0.84043
757.91470,0.84890
755.98616,0.85278
754.05763,0.84857
752.12909,0.83058
750.20055,0.79229
748.27202,0.73182
746.34348,0.66572
744.41495,0.62867
742.48641,0.63237
740.55787,0.64310
738.62934,0.63457
736.70080,0.62775
734.77227,0.64793
732.84373,0.68299
730.91519,0.69938
728.98666,0.68061
727.05812,0.65533
725.12959,0.66323
723.20105,0.69342
721.27251,0.71142
719.34398,0.72028
717.41544,0.74124
715.48690,0.76964
713.55837,0.79061
711.62983,0.80019
709.70130,0.79731
707.77276,0.77863
705.84422,0.74853
703.91569,0.72656
701.98715,0.73009
700.05862,0.75252
698.13008,0.77689
696.20154,0.79640
694.27301,0.81178
692.34447,0.82339
690.41593,0.83015
688.48740,0.82850
686.55886,0.81307
684.63033,0.78835
682.70179,0.77298
680.77325,0.77935
678.84472,0.79658
676.91618,0.80383
674.98765,0.79012
673.05911,0.76334
671.13057,0.74213
669.20204,0.74548
667.27350,0.78140
665.34497,0.80851
663.41643,0.81999
661.48789,0.82241
659.55936,0.81635
657.63082,0.81193
655.70228,0.81781
653.77375,0.82758
651.84521,0.83324
649.91668,0.83639
647.98814,0.84019
646.05960,0.84086
644.13107,0.82737
642.20253,0.79249
640.27400,0.75481
638.34546,0.73751
636.41692,0.72751
634.48839,0.71661
632.55985,0.72856
630.63131,0.76248
628.70278,0.79317
626.77424,0.81274
624.84571,0.82550
622.91717,0.83407
620.98863,0.83972
619.06010,0.84350
617.13156,0.84686
615.20303,0.85045
613.27449,0.85333
611.34595,0.85537
609.41742,0.85727
607.48888,0.85903
605.56035,0.86063
603.63181,0.86203
601.70327,0.86311
599.77474,0.86396
597.84620,0.86474
595.91766,0.86569
593.98913,0.86683
592.06059,0.86813
590.13206,0.86945
588.20352,0.87058
586.27498,0.87124
584.34645,0.87142
582.41791,0.87144
580.48938,0.87153
578.56084,0.87221
576.63230,0.87401
574.70377,0.87640
572.77523,0.87821
570.84669,0.87943
568.91816,0.88050
566.98962,0.88110
565.06109,0.88023
563.13255,0.87680
561.20401,0.86866
559.27548,0.84867
557.34694,0.80503
555.41841,0.74151
553.48987,0.68785
551.56133,0.65499
549.63280,0.61867
547.70426,0.57835
545.77573,0.56801
543.84719,0.59856
541.91865,0.64809
539.99012,0.69597
538.06158,0.73385
536.13304,0.76112
534.20451,0.77757
532.27597,0.78098
530.34744,0.77424
528.41890,0.76682
526.49036,0.75667
524.56183,0.73410
522.63329,0.71418
520.70476,0.71312
518.77622,0.72533
516.84768,0.74178
514.91915,0.75792
512.99061,0.76377
511.06207,0.74882
509.13354,0.71255
507.20500,0.67153
505.27647,0.65252
503.34793,0.66749
501.41939,0.70529
499.49086,0.74235
497.56232,0.76828
495.63379,0.78541
493.70525,0.79751
491.77671,0.80830
489.84818,0.81789
487.91964,0.82496
485.99110,0.82968
484.06257,0.83288
482.13403,0.83488
480.20550,0.83549
478.27696,0.83382
476.34842,0.82963
474.41989,0.82506
472.49135,0.82078
470.56282,0.81227
468.63428,0.79997
466.70574,0.79621
464.77721,0.80743
462.84867,0.82335
460.92014,0.83309
458.99160,0.83363
457.06306,0.82964
455.13453,0.83188
453.20599,0.84080
451.27745,0.84874
449.34892,0.85105
447.42038,0.84887
445.49185,0.84289
443.56331,0.83208
441.63477,0.81911
439.70624,0.81244
437.77770,0.81531
435.84917,0.82530
433.92063,0.83529
431.99209,0.83839
430.06356,0.83229
428.13502,0.81778
426.20648,0.80160
424.27795,0.79615
422.34941,0.80500
420.42088,0.81593
418.49234,0.81569
416.56380,0.80663
414.63527,0.79804
412.70673,0.79135
410.77820,0.79333
408.84966,0.80792
406.92112,0.82702
404.99259,0.83972
403.06405,0.84394
401.13552,0.84256
399.20698,0.83763
