3997.85540,0.95193
3995.92686,0.95199
3993.99833,0.95204
3992.06979,0.95207
3990.14125,0.95206
3988.21272,0.95202
3986.28418,0.95204
3984.35565,0.95212
3982.42711,0.95225
3980.49857,0.95234
3978.57004,0.95223
3976.64150,0.95204
3974.71297,0.95204
3972.78443,0.95218
3970.85589,0.95221
3968.92736,0.95214
3966.99882,0.95211
3965.07029,0.95211
3963.14175,0.95212
3961.21321,0.95225
3959.28468,0.95240
3957.35614,0.95244
3955.42760,0.95244
3953.49907,0.95246
3951.57053,0.95235
3949.64200,0.95205
3947.71346,0.95182
3945.78492,0.95184
3943.85639,0.95190
3941.92785,0.95194
3939.99932,0.95206
3938.07078,0.95221
3936.14224,0.95230
3934.21371,0.95218
3932.28517,0.95189
3930.35663,0.95187
3928.42810,0.95213
3926.49956,0.95228
3924.57103,0.95224
3922.64249,0.95218
3920.71395,0.95205
3918.78542,0.95185
3916.85688,0.95188
3914.92835,0.95228
3912.99981,0.95271
3911.07127,0.95292
3909.14274,0.95284
3907.21420,0.95240
3905.28566,0.95159
3903.35713,0.95086
3901.42859,0.95072
3899.50006,0.95103
3897.57152,0.95154
3895.64298,0.95190
3893.71445,0.95178
3891.78591,0.95139
3889.85738,0.95148
3887.92884,0.95167
3886.00030,0.95143
3884.07177,0.95117
3882.14323,0.95122
3880.21470,0.95143
3878.28616,0.95179
3876.35762,0.95189
3874.42909,0.95151
3872.50055,0.95092
3870.57201,0.95055
3868.64348,0.95078
3866.71494,0.95117
3864.78641,0.95124
3862.85787,0.95143
3860.92933,0.95197
3859.00080,0.95222
3857.07226,0.95182
3855.14373,0.95070
3853.21519,0.94979
3851.28665,0.95085
3849.35812,0.95214
3847.42958,0.95276
3845.50104,0.95276
3843.57251,0.95231
3841.64397,0.95172
3839.71544,0.95121
3837.78690,0.95101
3835.85836,0.95132
3833.92983,0.95173
3832.00129,0.95204
3830.07276,0.95231
3828.14422,0.95245
3826.21568,0.95241
3824.28715,0.95215
3822.35861,0.95152
3820.43008,0.95116
3818.50154,0.95151
3816.57300,0.95173
3814.64447,0.95217
3812.71593,0.95284
3810.78739,0.95309
3808.85886,0.95269
3806.93032,0.95207
3805.00179,0.95197
3803.07325,0.95198
3801.14471,0.95180
3799.21618,0.95198
3797.28764,0.95240
3795.35911,0.95295
3793.43057,0.95352
3791.50203,0.95383
3789.57350,0.95389
3787.64496,0.95376
3785.71642,0.95351
3783.78789,0.95341
3781.85935,0.95349
3779.93082,0.95347
3778.00228,0.95342
3776.07374,0.95357
3774.14521,0.95373
3772.21667,0.95358
3770.28814,0.95305
3768.35960,0.95270
3766.43106,0.95284
3764.50253,0.95319
3762.57399,0.95338
3760.64546,0.95320
3758.71692,0.95290
3756.78838,0.95292
3754.85985,0.95288
3752.93131,0.95223
3751.00277,0.95108
3749.07424,0.95085
3747.14570,0.95112
3745.21717,0.95103
3743.28863,0.95107
3741.36009,0.95137
3739.43156,0.95114
3737.50302,0.94998
3735.57449,0.94831
3733.64595,0.94788
3731.71741,0.94881
3729.78888,0.94958
3727.86034,0.94976
3725.93180,0.94975
3724.00327,0.95007
3722.07473,0.95076
3720.14620,0.95164
3718.21766,0.95254
3716.28912,0.95312
3714.36059,0.95295
3712.43205,0.95174
3710.50352,0.95053
3708.57498,0.95083
3706.64644,0.95160
3704.71791,0.95200
3702.78937,0.95202
3700.86084,0.95209
3698.93230,0.95242
3697.00376,0.95269
3695.07523,0.95266
3693.14669,0.95221
3691.21815,0.95144
3689.28962,0.95110
3687.36108,0.95186
3685.43255,0.95284
3683.50401,0.95346
3681.57547,0.95359
3679.64694,0.95315
3677.71840,0.95223
3675.78987,0.95143
3673.86133,0.95165
3671.93279,0.95199
3670.00426,0.95227
3668.07572,0.95317
3666.14718,0.95406
3664.21865,0.95453
3662.29011,0.95476
3660.36158,0.95475
3658.43304,0.95435
3656.50450,0.95371
3654.57597,0.95329
3652.64743,0.95274
3650.71890,0.95145
3648.79036,0.95068
3646.86182,0.95198
3644.93329,0.95321
3643.00475,0.95372
3641.07622,0.95379
3639.14768,0.95367
3637.21914,0.95339
3635.29061,0.95287
3633.36207,0.95227
3631.43353,0.95171
3629.50500,0.95100
3627.57646,0.95096
3625.64793,0.95171
3623.71939,0.95216
3621.79085,0.95210
3619.86232,0.95183
3617.93378,0.95209
3616.00525,0.95269
3614.07671,0.95298
3612.14817,0.95293
3610.21964,0.95262
3608.29110,0.95231
3606.36256,0.95252
3604.43403,0.95284
3602.50549,0.95271
3600.57696,0.95238
3598.64842,0.95232
3596.71988,0.95237
3594.79135,0.95240
3592.86281,0.95261
3590.93428,0.95274
3589.00574,0.95248
3587.07720,0.95240
3585.14867,0.95311
3583.22013,0.95388
3581.29160,0.95428
3579.36306,0.95445
3577.43452,0.95451
3575.50599,0.95448
3573.57745,0.95439
3571.64891,0.95424
3569.72038,0.95386
3567.79184,0.95327
3565.86331,0.95319
3563.93477,0.95372
3562.00623,0.95410
3560.07770,0.95419
3558.14916,0.95420
3556.22063,0.95425
3554.29209,0.95425
3552.36355,0.95419
3550.43502,0.95408
3548.50648,0.95391
3546.57794,0.95376
3544.64941,0.95386
3542.72087,0.95414
3540.79234,0.95435
3538.86380,0.95437
3536.93526,0.95423
3535.00673,0.95412
3533.07819,0.95411
3531.14966,0.95407
3529.22112,0.95396
3527.29258,0.95386
3525.36405,0.95380
3523.43551,0.95379
3521.50697,0.95391
3519.57844,0.95405
3517.64990,0.95407
3515.72137,0.95399
3513.79283,0.95401
3511.86429,0.95413
3509.93576,0.95415
3508.00722,0.95405
3506.07869,0.95396
3504.15015,0.95381
3502.22161,0.95373
3500.29308,0.95382
3498.36454,0.95388
3496.43601,0.95379
3494.50747,0.95378
3492.57893,0.95392
3490.65040,0.95402
3488.72186,0.95398
3486.79332,0.95390
3484.86479,0.95386
3482.93625,0.95385
3481.00772,0.95387
3479.07918,0.95392
3477.15064,0.95398
3475.22211,0.95400
3473.29357,0.95400
3471.36504,0.95396
3469.43650,0.95383
3467.50796,0.95368
3465.57943,0.95369
3463.65089,0.95380
3461.72235,0.95385
3459.79382,0.95383
3457.86528,0.95378
3455.93675,0.95370
3454.00821,0.95367
3452.07967,0.95375
3450.15114,0.95375
3448.22260,0.95355
3446.29407,0.95339
3444.36553,0.95348
3442.43699,0.95361
3440.50846,0.95368
3438.57992,0.95373
3436.65139,0.95375
3434.72285,0.95373
3432.79431,0.95371
3430.86578,0.95368
3428.93724,0.95362
3427.00870,0.95359
3425.08017,0.95358
3423.15163,0.95355
3421.22310,0.95349
3419.29456,0.95346
3417.36602,0.95354
3415.43749,0.95360
3413.50895,0.95353
3411.58042,0.95342
3409.65188,0.95342
3407.72334,0.95351
3405.79481,0.95355
3403.86627,0.95349
3401.93773,0.95340
3400.00920,0.95336
3398.08066,0.95331
3396.15213,0.95326
3394.22359,0.95325
3392.29505,0.95327
3390.36652,0.95333
3388.43798,0.95342
3386.50945,0.95348
3384.58091,0.95348
3382.65237,0.95346
3380.72384,0.95349
3378.79530,0.95358
3376.86677,0.95363
3374.93823,0.95360
3373.00969,0.95353
3371.08116,0.95343
3369.15262,0.95330
3367.22408,0.95319
3365.29555,0.95316
3363.36701,0.95326
3361.43848,0.95340
3359.50994,0.95348
3357.58140,0.95351
3355.65287,0.95354
3353.72433,0.95364
3351.79580,0.95373
3349.86726,0.95370
3347.93872,0.95365
3346.01019,0.95368
3344.08165,0.95370
3342.15311,0.95370
3340.22458,0.95368
3338.29604,0.95361
3336.36751,0.95358
3334.43897,0.95362
3332.51043,0.95368
3330.58190,0.95375
3328.65336,0.95380
3326.72483,0.95377
3324.79629,0.95368
3322.86775,0.95364
3320.93922,0.95372
3319.01068,0.95387
3317.08215,0.95398
3315.15361,0.95402
3313.22507,0.95405
3311.29654,0.95406
3309.36800,0.95404
3307.43946,0.95402
3305.51093,0.95398
3303.58239,0.95396
3301.65386,0.95399
3299.72532,0.95404
3297.79678,0.95406
3295.86825,0.95413
3293.93971,0.95420
3292.01118,0.95415
3290.08264,0.95410
3288.15410,0.95415
3286.22557,0.95418
3284.29703,0.95413
3282.36849,0.95408
3280.43996,0.95407
3278.51142,0.95407
3276.58289,0.95410
3274.65435,0.95422
3272.72581,0.95433
3270.79728,0.95428
3268.86874,0.95415
3266.94021,0.95408
3265.01167,0.95401
3263.08313,0.95399
3261.15460,0.95406
3259.22606,0.95419
3257.29753,0.95428
3255.36899,0.95427
3253.44045,0.95427
3251.51192,0.95432
3249.58338,0.95437
3247.65484,0.95442
3245.72631,0.95446
3243.79777,0.95450
3241.86924,0.95454
3239.94070,0.95450
3238.01216,0.95443
3236.08363,0.95444
3234.15509,0.95448
3232.22656,0.95443
3230.29802,0.95440
3228.36948,0.95442
3226.44095,0.95438
3224.51241,0.95434
3222.58387,0.95440
3220.65534,0.95450
3218.72680,0.95452
3216.79827,0.95451
3214.86973,0.95459
3212.94119,0.95465
3211.01266,0.95457
3209.08412,0.95448
3207.15559,0.95451
3205.22705,0.95461
3203.29851,0.95469
3201.36998,0.95469
3199.44144,0.95465
3197.51290,0.95460
3195.58437,0.95458
3193.65583,0.95464
3191.72730,0.95471
3189.79876,0.95472
3187.87022,0.95472
3185.94169,0.95470
3184.01315,0.95462
3182.08462,0.95460
3180.15608,0.95464
3178.22754,0.95463
3176.29901,0.95464
3174.37047,0.95468
3172.44194,0.95470
3170.51340,0.95471
3168.58486,0.95471
3166.65633,0.95470
3164.72779,0.95468
3162.79925,0.95464
3160.87072,0.95460
3158.94218,0.95461
3157.01365,0.95469
3155.08511,0.95475
3153.15657,0.95472
3151.22804,0.95470
3149.29950,0.95475
3147.37097,0.95483
3145.44243,0.95486
3143.51389,0.95483
3141.58536,0.95480
3139.65682,0.95479
3137.72828,0.95476
3135.79975,0.95473
3133.87121,0.95478
3131.94268,0.95483
3130.01414,0.95472
3128.08560,0.95453
3126.15707,0.95441
3124.22853,0.95441
3122.30000,0.95449
3120.37146,0.95460
3118.44292,0.95465
3116.51439,0.95462
3114.58585,0.95459
3112.65732,0.95463
3110.72878,0.95469
3108.80024,0.95470
3106.87171,0.95471
3104.94317,0.95472
3103.01463,0.95471
3101.08610,0.95462
3099.15756,0.95447
3097.22903,0.95439
3095.30049,0.95443
3093.37195,0.95451
3091.44342,0.95449
3089.51488,0.95433
3087.58635,0.95413
3085.65781,0.95395
3083.72927,0.95372
3081.80074,0.95343
3079.87220,0.95317
3077.94366,0.95306
3076.01513,0.95312
3074.08659,0.95329
3072.15806,0.95344
3070.22952,0.95343
3068.30098,0.95330
3066.37245,0.95316
3064.44391,0.95307
3062.51538,0.95299
3060.58684,0.95282
3058.65830,0.95266
3056.72977,0.95260
3054.80123,0.95261
3052.87270,0.95257
3050.94416,0.95249
3049.01562,0.95239
3047.08709,0.95237
3045.15855,0.95244
3043.23001,0.95245
3041.30148,0.95232
3039.37294,0.95205
3037.44441,0.95171
3035.51587,0.95135
3033.58733,0.95085
3031.65880,0.95010
3029.73026,0.94919
3027.80173,0.94812
3025.87319,0.94671
3023.94465,0.94493
3022.01612,0.94295
3020.08758,0.94081
3018.15904,0.93853
3016.23051,0.93625
3014.30197,0.93417
3012.37344,0.93223
3010.44490,0.93019
3008.51636,0.92803
3006.58783,0.92607
3004.65929,0.92466
3002.73076,0.92385
3000.80222,0.92353
2998.87368,0.92347
2996.94515,0.92344
2995.01661,0.92353
2993.08808,0.92407
2991.15954,0.92497
2989.23100,0.92572
2987.30247,0.92586
2985.37393,0.92511
2983.44539,0.92349
2981.51686,0.92139
2979.58832,0.91919
2977.65979,0.91705
2975.73125,0.91505
2973.80271,0.91318
2971.87418,0.91161
2969.94564,0.91070
2968.01711,0.91034
2966.08857,0.91005
2964.16003,0.90968
2962.23150,0.90944
2960.30296,0.90952
2958.37442,0.90996
2956.44589,0.91066
2954.51735,0.91157
2952.58882,0.91260
2950.66028,0.91372
2948.73174,0.91498
2946.80321,0.91615
2944.87467,0.91682
2942.94614,0.91685
2941.01760,0.91645
2939.08906,0.91590
2937.16053,0.91539
2935.23199,0.91503
2933.30346,0.91486
2931.37492,0.91474
2929.44638,0.91448
2927.51785,0.91406
2925.58931,0.91356
2923.66077,0.91309
2921.73224,0.91279
2919.80370,0.91267
2917.87517,0.91269
2915.94663,0.91279
2914.01809,0.91288
2912.08956,0.91286
2910.16102,0.91267
2908.23249,0.91246
2906.30395,0.91244
2904.37541,0.91265
2902.44688,0.91306
2900.51834,0.91369
2898.58980,0.91455
2896.66127,0.91553
2894.73273,0.91648
2892.80420,0.91736
2890.87566,0.91823
2888.94712,0.91911
2887.01859,0.91987
2885.09005,0.92036
2883.16152,0.92062
2881.23298,0.92064
2879.30444,0.92038
2877.37591,0.92001
2875.44737,0.91971
2873.51883,0.91948
2871.59030,0.91937
2869.66176,0.91962
2867.73323,0.92032
2865.80469,0.92136
2863.87615,0.92262
2861.94762,0.92399
2860.01908,0.92534
2858.09055,0.92656
2856.16201,0.92772
2854.23347,0.92893
2852.30494,0.93025
2850.37640,0.93161
2848.44787,0.93291
2846.51933,0.93407
2844.59079,0.93504
2842.66226,0.93577
2840.73372,0.93629
2838.80518,0.93670
2836.87665,0.93704
2834.94811,0.93746
2833.01958,0.93815
2831.09104,0.93910
2829.16250,0.94013
2827.23397,0.94107
2825.30543,0.94189
2823.37690,0.94261
2821.44836,0.94314
2819.51982,0.94350
2817.59129,0.94380
2815.66275,0.94404
2813.73421,0.94423
2811.80568,0.94445
2809.87714,0.94468
2807.94861,0.94487
2806.02007,0.94508
2804.09153,0.94533
2802.16300,0.94560
2800.23446,0.94586
2798.30593,0.94610
2796.37739,0.94630
2794.44885,0.94646
2792.52032,0.94657
2790.59178,0.94664
2788.66325,0.94669
2786.73471,0.94674
2784.80617,0.94684
2782.87764,0.94701
2780.94910,0.94716
2779.02056,0.94720
2777.09203,0.94721
2775.16349,0.94722
2773.23496,0.94717
2771.30642,0.94705
2769.37788,0.94699
2767.44935,0.94702
2765.52081,0.94705
2763.59228,0.94708
2761.66374,0.94710
2759.73520,0.94708
2757.80667,0.94700
2755.87813,0.94683
2753.94959,0.94656
2752.02106,0.94632
2750.09252,0.94623
2748.16399,0.94620
2746.23545,0.94609
2744.30691,0.94585
2742.37838,0.94558
2740.44984,0.94546
2738.52131,0.94552
2736.59277,0.94564
2734.66423,0.94566
2732.73570,0.94563
2730.80716,0.94565
2728.87863,0.94573
2726.95009,0.94581
2725.02155,0.94587
2723.09302,0.94591
2721.16448,0.94595
2719.23594,0.94597
2717.30741,0.94582
2715.37887,0.94542
2713.45034,0.94488
2711.52180,0.94439
2709.59326,0.94413
2707.66473,0.94418
2705.73619,0.94443
2703.80766,0.94473
2701.87912,0.94496
2699.95058,0.94504
2698.02205,0.94486
2696.09351,0.94447
2694.16497,0.94405
2692.23644,0.94371
2690.30790,0.94357
2688.37937,0.94377
2686.45083,0.94428
2684.52229,0.94497
2682.59376,0.94571
2680.66522,0.94646
2678.73669,0.94718
2676.80815,0.94780
2674.87961,0.94828
2672.95108,0.94866
2671.02254,0.94896
2669.09401,0.94919
2667.16547,0.94934
2665.23693,0.94938
2663.30840,0.94938
2661.37986,0.94942
2659.45132,0.94946
2657.52279,0.94947
2655.59425,0.94951
2653.66572,0.94957
2651.73718,0.94965
2649.80864,0.94979
2647.88011,0.95000
2645.95157,0.95023
2644.02304,0.95048
2642.09450,0.95075
2640.16596,0.95105
2638.23743,0.95138
2636.30889,0.95175
2634.38035,0.95214
2632.45182,0.95245
2630.52328,0.95269
2628.59475,0.95291
2626.66621,0.95307
2624.73767,0.95316
2622.80914,0.95325
2620.88060,0.95339
2618.95207,0.95356
2617.02353,0.95370
2615.09499,0.95386
2613.16646,0.95413
2611.23792,0.95436
2609.30939,0.95440
2607.38085,0.95446
2605.45231,0.95464
2603.52378,0.95486
2601.59524,0.95503
2599.66670,0.95513
2597.73817,0.95519
2595.80963,0.95522
2593.88110,0.95527
2591.95256,0.95538
2590.02402,0.95553
2588.09549,0.95565
2586.16695,0.95575
2584.23842,0.95587
2582.30988,0.95598
2580.38134,0.95607
2578.45281,0.95615
2576.52427,0.95617
2574.59573,0.95604
2572.66720,0.95587
2570.73866,0.95585
2568.81013,0.95596
2566.88159,0.95619
2564.95305,0.95642
2563.02452,0.95646
2561.09598,0.95633
2559.16745,0.95626
2557.23891,0.95639
2555.31037,0.95657
2553.38184,0.95661
2551.45330,0.95651
2549.52476,0.95643
2547.59623,0.95638
2545.66769,0.95636
2543.73916,0.95644
2541.81062,0.95657
2539.88208,0.95668
2537.95355,0.95678
2536.02501,0.95690
2534.09648,0.95704
2532.16794,0.95714
2530.23940,0.95719
2528.31087,0.95721
2526.38233,0.95726
2524.45380,0.95735
2522.52526,0.95739
2520.59672,0.95730
2518.66819,0.95719
2516.73965,0.95716
2514.81111,0.95718
2512.88258,0.95721
2510.95404,0.95720
2509.02551,0.95721
2507.09697,0.95732
2505.16843,0.95734
2503.23990,0.95722
2501.31136,0.95719
2499.38283,0.95730
2497.45429,0.95745
2495.52575,0.95757
2493.59722,0.95766
2491.66868,0.95774
2489.74014,0.95787
2487.81161,0.95801
2485.88307,0.95812
2483.95454,0.95818
2482.02600,0.95813
2480.09746,0.95801
2478.16893,0.95798
2476.24039,0.95807
2474.31186,0.95808
2472.38332,0.95793
2470.45478,0.95768
2468.52625,0.95740
2466.59771,0.95706
2464.66918,0.95664
2462.74064,0.95637
2460.81210,0.95644
2458.88357,0.95675
2456.95503,0.95707
2455.02649,0.95735
2453.09796,0.95760
2451.16942,0.95777
2449.24089,0.95788
2447.31235,0.95795
2445.38381,0.95803
2443.45528,0.95817
2441.52674,0.95834
2439.59821,0.95846
2437.66967,0.95854
2435.74113,0.95864
2433.81260,0.95873
2431.88406,0.95873
2429.95552,0.95870
2428.02699,0.95876
2426.09845,0.95891
2424.16992,0.95900
2422.24138,0.95896
2420.31284,0.95888
2418.38431,0.95889
2416.45577,0.95894
2414.52724,0.95896
2412.59870,0.95899
2410.67016,0.95905
2408.74163,0.95917
2406.81309,0.95923
2404.88456,0.95918
2402.95602,0.95915
2401.02748,0.95918
2399.09895,0.95918
2397.17041,0.95923
2395.24187,0.95934
2393.31334,0.95934
2391.38480,0.95914
2389.45627,0.95881
2387.52773,0.95821
2385.59919,0.95690
2383.67066,0.95460
2381.74212,0.95146
2379.81359,0.94761
2377.88505,0.94300
2375.95651,0.93762
2374.02798,0.93161
2372.09944,0.92513
2370.17090,0.91824
2368.24237,0.91126
2366.31383,0.90498
2364.38530,0.90012
2362.45676,0.89698
2360.52822,0.89573
2358.59969,0.89678
2356.67115,0.90092
2354.74262,0.90776
2352.81408,0.91611
2350.88554,0.92353
2348.95701,0.92679
2347.02847,0.92473
2345.09994,0.91872
2343.17140,0.91335
2341.24286,0.91179
2339.31433,0.91258
2337.38579,0.91391
2335.45725,0.91526
2333.52872,0.91644
2331.60018,0.91743
2329.67165,0.91851
2327.74311,0.91988
2325.81457,0.92180
2323.88604,0.92432
2321.95750,0.92737
2320.02897,0.93093
2318.10043,0.93459
2316.17189,0.93761
2314.24336,0.93964
2312.31482,0.94107
2310.38628,0.94273
2308.45775,0.94484
2306.52921,0.94699
2304.60068,0.94881
2302.67214,0.95017
2300.74360,0.95119
2298.81507,0.95217
2296.88653,0.95313
2294.95800,0.95397
2293.02946,0.95476
2291.10092,0.95550
2289.17239,0.95620
2287.24385,0.95694
2285.31532,0.95769
2283.38678,0.95829
2281.45824,0.95858
2279.52971,0.95867
2277.60117,0.95879
2275.67263,0.95904
2273.74410,0.95933
2271.81556,0.95948
2269.88703,0.95946
2267.95849,0.95944
2266.02995,0.95959
2264.10142,0.95993
2262.17288,0.96026
2260.24435,0.96048
2258.31581,0.96079
2256.38727,0.96129
2254.45874,0.96170
2252.53020,0.96186
2250.60166,0.96201
2248.67313,0.96221
2246.74459,0.96219
2244.81606,0.96209
2242.88752,0.96222
2240.95898,0.96242
2239.03045,0.96253
2237.10191,0.96269
2235.17338,0.96301
2233.24484,0.96322
2231.31630,0.96313
2229.38777,0.96298
2227.45923,0.96302
2225.53070,0.96317
2223.60216,0.96344
2221.67362,0.96373
2219.74509,0.96379
2217.81655,0.96378
2215.88801,0.96392
2213.95948,0.96393
2212.03094,0.96376
2210.10241,0.96374
2208.17387,0.96391
2206.24533,0.96415
2204.31680,0.96428
2202.38826,0.96422
2200.45973,0.96416
2198.53119,0.96413
2196.60265,0.96413
2194.67412,0.96415
2192.74558,0.96411
2190.81704,0.96406
2188.88851,0.96418
2186.95997,0.96444
2185.03144,0.96473
2183.10290,0.96511
2181.17436,0.96534
2179.24583,0.96523
2177.31729,0.96515
2175.38876,0.96525
2173.46022,0.96511
2171.53168,0.96448
2169.60315,0.96369
2167.67461,0.96324
2165.74607,0.96344
2163.81754,0.96407
2161.88900,0.96521
2159.96047,0.96734
2158.03193,0.96925
2156.10339,0.96935
2154.17486,0.96850
2152.24632,0.96812
2150.31779,0.96819
2148.38925,0.96812
2146.46071,0.96772
2144.53218,0.96726
2142.60364,0.96710
2140.67511,0.96732
2138.74657,0.96770
2136.81803,0.96807
2134.88950,0.96832
2132.96096,0.96821
2131.03242,0.96782
2129.10389,0.96739
2127.17535,0.96686
2125.24682,0.96635
2123.31828,0.96604
2121.38974,0.96583
2119.46121,0.96555
2117.53267,0.96529
2115.60414,0.96517
2113.67560,0.96514
2111.74706,0.96496
2109.81853,0.96475
2107.88999,0.96486
2105.96145,0.96521
2104.03292,0.96537
2102.10438,0.96528
2100.17585,0.96525
2098.24731,0.96537
2096.31877,0.96552
2094.39024,0.96566
2092.46170,0.96572
2090.53317,0.96556
2088.60463,0.96534
2086.67609,0.96541
2084.74756,0.96561
2082.81902,0.96565
2080.89049,0.96556
2078.96195,0.96544
2077.03341,0.96543
2075.10488,0.96553
2073.17634,0.96565
2071.24780,0.96592
2069.31927,0.96632
2067.39073,0.96644
2065.46220,0.96617
2063.53366,0.96581
2061.60512,0.96557
2059.67659,0.96538
2057.74805,0.96530
2055.81952,0.96546
2053.89098,0.96543
2051.96244,0.96514
2050.03391,0.96551
2048.10537,0.96647
2046.17683,0.96702
2044.24830,0.96722
2042.31976,0.96756
2040.39123,0.96802
2038.46269,0.96846
2036.53415,0.96890
2034.60562,0.96941
2032.67708,0.96960
2030.74855,0.96948
2028.82001,0.96973
2026.89147,0.97028
2024.96294,0.97061
2023.03440,0.97060
2021.10587,0.97042
2019.17733,0.97018
2017.24879,0.97007
2015.32026,0.97026
2013.39172,0.97046
2011.46318,0.97035
2009.53465,0.97021
2007.60611,0.97032
2005.67758,0.97025
2003.74904,0.96984
2001.82050,0.96956
1999.89197,0.96934
1997.96343,0.96906
1996.03490,0.96895
1994.10636,0.96896
1992.17782,0.96892
1990.24929,0.96890
1988.32075,0.96883
1986.39221,0.96852
1984.46368,0.96802
1982.53514,0.96757
1980.60661,0.96765
1978.67807,0.96838
1976.74953,0.96901
1974.82100,0.96929
1972.89246,0.96950
1970.96393,0.96955
1969.03539,0.96924
1967.10685,0.96866
1965.17832,0.96830
1963.24978,0.96854
1961.32125,0.96926
1959.39271,0.96992
1957.46417,0.96990
1955.53564,0.96939
1953.60710,0.96903
1951.67856,0.96892
1949.75003,0.96889
1947.82149,0.96892
1945.89296,0.96879
1943.96442,0.96846
1942.03588,0.96826
1940.10735,0.96827
1938.17881,0.96830
1936.25028,0.96830
1934.32174,0.96829
1932.39320,0.96822
1930.46467,0.96821
1928.53613,0.96838
1926.60759,0.96850
1924.67906,0.96822
1922.75052,0.96763
1920.82199,0.96729
1918.89345,0.96723
1916.96491,0.96724
1915.03638,0.96736
1913.10784,0.96746
1911.17931,0.96757
1909.25077,0.96776
1907.32223,0.96780
1905.39370,0.96763
1903.46516,0.96748
1901.53663,0.96752
1899.60809,0.96761
1897.67955,0.96748
1895.75102,0.96726
1893.82248,0.96710
1891.89394,0.96685
1889.96541,0.96655
1888.03687,0.96644
1886.10834,0.96649
1884.17980,0.96656
1882.25126,0.96665
1880.32273,0.96671
1878.39419,0.96678
1876.46566,0.96689
1874.53712,0.96700
1872.60858,0.96700
1870.68005,0.96679
1868.75151,0.96651
1866.82297,0.96668
1864.89444,0.96714
1862.96590,0.96746
1861.03737,0.96754
1859.10883,0.96757
1857.18029,0.96768
1855.25176,0.96784
1853.32322,0.96795
1851.39469,0.96795
1849.46615,0.96773
1847.53761,0.96726
1845.60908,0.96677
1843.68054,0.96680
1841.75200,0.96735
1839.82347,0.96766
1837.89493,0.96760
1835.96640,0.96749
1834.03786,0.96732
1832.10932,0.96684
1830.18079,0.96625
1828.25225,0.96604
1826.32372,0.96614
1824.39518,0.96645
1822.46664,0.96695
1820.53811,0.96734
1818.60957,0.96758
1816.68104,0.96768
1814.75250,0.96751
1812.82396,0.96711
1810.89543,0.96674
1808.96689,0.96669
1807.03835,0.96683
1805.10982,0.96681
1803.18128,0.96658
1801.25275,0.96638
1799.32421,0.96641
1797.39567,0.96642
1795.46714,0.96611
1793.53860,0.96547
1791.61007,0.96514
1789.68153,0.96561
1787.75299,0.96613
1785.82446,0.96627
1783.89592,0.96624
1781.96738,0.96624
1780.03885,0.96633
1778.11031,0.96640
1776.18178,0.96616
1774.25324,0.96545
1772.32470,0.96477
1770.39617,0.96505
1768.46763,0.96582
1766.53910,0.96641
1764.61056,0.96652
1762.68202,0.96618
1760.75349,0.96583
1758.82495,0.96563
1756.89642,0.96541
1754.96788,0.96526
1753.03934,0.96487
1751.11081,0.96396
1749.18227,0.96329
1747.25373,0.96347
1745.32520,0.96378
1743.39666,0.96379
1741.46813,0.96365
1739.53959,0.96365
1737.61105,0.96365
1735.68252,0.96328
1733.75398,0.96305
1731.82545,0.96391
1729.89691,0.96490
1727.96837,0.96544
1726.03984,0.96556
1724.11130,0.96538
1722.18276,0.96503
1720.25423,0.96432
1718.32569,0.96297
1716.39716,0.96215
1714.46862,0.96313
1712.54008,0.96430
1710.61155,0.96488
1708.68301,0.96484
1706.75448,0.96434
1704.82594,0.96394
1702.89740,0.96388
1700.96887,0.96364
1699.04033,0.96310
1697.11180,0.96310
1695.18326,0.96400
1693.25472,0.96491
1691.32619,0.96520
1689.39765,0.96506
1687.46911,0.96463
1685.54058,0.96382
1683.61204,0.96338
1681.68351,0.96405
1679.75497,0.96464
1677.82643,0.96477
1675.89790,0.96450
1673.96936,0.96422
1672.04083,0.96397
1670.11229,0.96376
1668.18375,0.96421
1666.25522,0.96475
1664.32668,0.96472
1662.39814,0.96449
1660.46961,0.96459
1658.54107,0.96456
1656.61254,0.96395
1654.68400,0.96263
1652.75546,0.96172
1650.82693,0.96237
1648.89839,0.96249
1646.96986,0.96226
1645.04132,0.96296
1643.11278,0.96362
1641.18425,0.96342
1639.25571,0.96220
1637.32718,0.95945
1635.39864,0.95493
1633.47010,0.95186
1631.54157,0.95046
1629.61303,0.94990
1627.68449,0.95073
1625.75596,0.95238
1623.82742,0.95378
1621.89889,0.95458
1619.97035,0.95435
1618.04181,0.95298
1616.11328,0.95150
1614.18474,0.95175
1612.25621,0.95283
1610.32767,0.95402
1608.39913,0.95529
1606.47060,0.95646
1604.54206,0.95725
1602.61352,0.95762
1600.68499,0.95781
1598.75645,0.95784
1596.82792,0.95749
1594.89938,0.95654
1592.97084,0.95465
1591.04231,0.95132
1589.11377,0.94630
1587.18524,0.94008
1585.25670,0.93321
1583.32816,0.92607
1581.39963,0.91986
1579.47109,0.91626
1577.54256,0.91750
1575.61402,0.92639
1573.68548,0.93570
1571.75695,0.94123
1569.82841,0.94567
1567.89987,0.94826
1565.97134,0.94719
1564.04280,0.94362
1562.11427,0.93997
1560.18573,0.93802
1558.25719,0.94110
1556.32866,0.94624
1554.40012,0.95020
1552.47159,0.95343
1550.54305,0.95520
1548.61451,0.95549
1546.68598,0.95453
1544.75744,0.95235
1542.82890,0.94952
1540.90037,0.94749
1538.97183,0.94747
1537.04330,0.94735
1535.11476,0.94501
1533.18622,0.93992
1531.25769,0.93551
1529.32915,0.93365
1527.40062,0.93367
1525.47208,0.93587
1523.54354,0.93907
1521.61501,0.94259
1519.68647,0.94564
1517.75793,0.94650
1515.82940,0.94547
1513.90086,0.94310
1511.97233,0.93892
1510.04379,0.93212
1508.11525,0.91228
1506.18672,0.86330
1504.25818,0.83150
1502.32965,0.81677
1500.40111,0.80768
1498.47257,0.80656
1496.54404,0.81431
1494.61550,0.82245
1492.68697,0.82486
1490.75843,0.81998
1488.82989,0.81006
1486.90136,0.80676
1484.97282,0.81122
1483.04428,0.81946
1481.11575,0.82954
1479.18721,0.83875
1477.25868,0.84591
1475.33014,0.85160
1473.40160,0.85742
1471.47307,0.86491
1469.54453,0.87119
1467.61600,0.87506
1465.68746,0.87629
1463.75892,0.87446
1461.83039,0.87094
1459.90185,0.86517
1457.97331,0.85158
1456.04478,0.83324
1454.11624,0.82540
1452.18771,0.82213
1450.25917,0.82006
1448.33063,0.82160
1446.40210,0.82926
1444.47356,0.83901
1442.54503,0.84412
1440.61649,0.84119
1438.68795,0.83171
1436.75942,0.82028
1434.83088,0.81798
1432.90235,0.82700
1430.97381,0.84273
1429.04527,0.86123
1427.11674,0.87591
1425.18820,0.88602
1423.25966,0.89295
1421.33113,0.89671
1419.40259,0.89873
1417.47406,0.90029
1415.54552,0.90081
1413.61698,0.89947
1411.68845,0.89567
1409.75991,0.89055
1407.83138,0.88736
1405.90284,0.88891
1403.97430,0.89514
1402.04577,0.90138
1400.11723,0.90363
1398.18869,0.90059
1396.26016,0.89616
1394.33162,0.89684
1392.40309,0.90214
1390.47455,0.90618
1388.54601,0.90546
1386.61748,0.90207
1384.68894,0.90138
1382.76041,0.90112
1380.83187,0.89628
1378.90333,0.88618
1376.97480,0.87443
1375.04626,0.86555
1373.11773,0.86205
1371.18919,0.86284
1369.26065,0.86595
1367.33212,0.87069
1365.40358,0.87721
1363.47504,0.88653
1361.54651,0.89755
1359.61797,0.90745
1357.68944,0.91659
1355.76090,0.92512
1353.83236,0.93187
1351.90383,0.93666
1349.97529,0.94038
1348.04676,0.94357
1346.11822,0.94620
1344.18968,0.94786
1342.26115,0.94812
1340.33261,0.94645
1338.40407,0.94256
1336.47554,0.93619
1334.54700,0.92518
1332.61847,0.90464
1330.68993,0.87003
1328.76139,0.82558
1326.83286,0.78789
1324.90432,0.77435
1322.97579,0.78717
1321.04725,0.81265
1319.11871,0.83659
1317.19018,0.85371
1315.26164,0.86562
1313.33311,0.87447
1311.40457,0.88036
1309.47603,0.88427
1307.54750,0.88934
1305.61896,0.89696
1303.69042,0.90499
1301.76189,0.91134
1299.83335,0.91600
1297.90482,0.91969
1295.97628,0.92284
1294.04774,0.92537
1292.11921,0.92685
1290.19067,0.92681
1288.26214,0.92487
1286.33360,0.92112
1284.40506,0.91606
1282.47653,0.90990
1280.54799,0.90221
1278.61945,0.89252
1276.69092,0.88065
1274.76238,0.86693
1272.83385,0.85432
1270.90531,0.84945
1268.97677,0.85628
1267.04824,0.87047
1265.11970,0.88441
1263.19117,0.89418
1261.26263,0.90045
1259.33409,0.90499
1257.40556,0.90813
1255.47702,0.90897
1253.54849,0.90670
1251.61995,0.90206
1249.69141,0.89783
1247.76288,0.89695
1245.83434,0.89971
1243.90580,0.90332
1241.97727,0.90362
1240.04873,0.89625
1238.12020,0.87787
1236.19166,0.85055
1234.26312,0.82457
1232.33459,0.81231
1230.40605,0.81811
1228.47752,0.83562
1226.54898,0.85503
1224.62044,0.87103
1222.69191,0.88378
1220.76337,0.89474
1218.83483,0.90378
1216.90630,0.90942
1214.97776,0.91060
1213.04923,0.90771
1211.12069,0.90301
1209.19215,0.89974
1207.26362,0.89997
1205.33508,0.90326
1203.40655,0.90773
1201.47801,0.91154
1199.54947,0.91381
1197.62094,0.91469
1195.69240,0.91479
1193.76387,0.91418
1191.83533,0.91208
1189.90679,0.90819
1187.97826,0.90369
1186.04972,0.89961
1184.12118,0.89464
1182.19265,0.88648
1180.26411,0.87466
1178.33558,0.86128
1176.40704,0.84931
1174.47850,0.84009
1172.54997,0.83330
1170.62143,0.82878
1168.69290,0.82674
1166.76436,0.82701
1164.83582,0.82967
1162.90729,0.83485
1160.97875,0.84059
1159.05021,0.84320
1157.12168,0.84108
1155.19314,0.83694
1153.26461,0.83394
1151.33607,0.82942
1149.40753,0.81523
1147.47900,0.78757
1145.55046,0.75435
1143.62193,0.73080
1141.69339,0.72770
1139.76485,0.74282
1137.83632,0.76468
1135.90778,0.78480
1133.97924,0.80208
1132.05071,0.81668
1130.12217,0.82684
1128.19364,0.83130
1126.26510,0.83136
1124.33656,0.83031
1122.40803,0.83011
1120.47949,0.82949
1118.55096,0.82703
1116.62242,0.82470
1114.69388,0.82671
1112.76535,0.83518
1110.83681,0.84791
1108.90828,0.86119
1106.97974,0.87287
1105.05120,0.88236
1103.12267,0.88965
1101.19413,0.89504
1099.26559,0.89905
1097.33706,0.90210
1095.40852,0.90425
1093.47999,0.90549
1091.55145,0.90611
1089.62291,0.90635
1087.69438,0.90586
1085.76584,0.90375
1083.83731,0.89807
1081.90877,0.88540
1079.98023,0.86365
1078.05170,0.83774
1076.12316,0.81957
1074.19462,0.81837
1072.26609,0.83236
1070.33755,0.85261
1068.40902,0.87157
1066.48048,0.88609
1064.55194,0.89567
1062.62341,0.90028
1060.69487,0.89992
1058.76634,0.89603
1056.83780,0.89211
1054.90926,0.89119
1052.98073,0.89258
1051.05219,0.89264
1049.12366,0.88808
1047.19512,0.87715
1045.26658,0.85940
1043.33805,0.83669
1041.40951,0.81471
1039.48097,0.80116
1037.55244,0.80023
1035.62390,0.80912
1033.69537,0.82145
1031.76683,0.83211
1029.83829,0.83765
1027.90976,0.83472
1025.98122,0.82135
1024.05269,0.80063
1022.12415,0.78177
1020.19561,0.77486
1018.26708,0.78227
1016.33854,0.79556
1014.41000,0.80178
1012.48147,0.79203
1010.55293,0.76870
1008.62440,0.74713
1006.69586,0.74317
1004.76732,0.75784
1002.83879,0.78028
1000.91025,0.80143
998.98172,0.81910
997.05318,0.83406
995.12464,0.84681
993.19611,0.85734
991.26757,0.86568
989.33904,0.87213
987.41050,0.87721
985.48196,0.88143
983.55343,0.88520
981.62489,0.88861
979.69635,0.89145
977.76782,0.89361
975.83928,0.89504
973.91075,0.89534
971.98221,0.89422
970.05367,0.89277
968.12514,0.89289
966.19660,0.89478
964.26807,0.89679
962.33953,0.89790
960.41099,0.89795
958.48246,0.89701
956.55392,0.89667
954.62538,0.89896
952.69685,0.90328
950.76831,0.90747
948.83978,0.91062
946.91124,0.91272
944.98270,0.91343
943.05417,0.91186
941.12563,0.90686
939.19710,0.89802
937.26856,0.88719
935.34002,0.87869
933.41149,0.87608
931.48295,0.87912
929.55442,0.88498
927.62588,0.89087
925.69734,0.89527
923.76881,0.89824
921.84027,0.90069
919.91173,0.90319
917.98320,0.90550
916.05466,0.90669
914.12613,0.90583
912.19759,0.90287
910.26905,0.89829
908.34052,0.89228
906.41198,0.88432
904.48345,0.87338
902.55491,0.85856
900.62637,0.84004
898.69784,0.81975
896.76930,0.80123
894.84076,0.78851
892.91223,0.78466
890.98369,0.79042
889.05516,0.80344
887.12662,0.81962
885.19808,0.83551
883.26955,0.84909
881.34101,0.85896
879.41248,0.86431
877.48394,0.86592
875.55540,0.86606
873.62687,0.86724
871.69833,0.87085
869.76980,0.87674
867.84126,0.88370
865.91272,0.89025
863.98419,0.89538
862.05565,0.89834
860.12711,0.89870
858.19858,0.89770
856.27004,0.89829
854.34151,0.90167
852.41297,0.90596
850.48443,0.90915
848.55590,0.91080
846.62736,0.91156
844.69883,0.91248
842.77029,0.91419
840.84175,0.91658
838.91322,0.91917
836.98468,0.92149
835.05614,0.92325
833.12761,0.92439
831.19907,0.92480
829.27054,0.92439
827.34200,0.92320
825.41346,0.92129
823.48493,0.91872
821.55639,0.91491
819.62786,0.90798
817.69932,0.89481
815.77078,0.87423
813.84225,0.85194
811.91371,0.83732
809.98517,0.83406
808.05664,0.83912
806.12810,0.84881
804.19957,0.86089
802.27103,0.87321
800.34249,0.88357
798.41396,0.89053
796.48542,0.89400
794.55689,0.89604
792.62835,0.89982
790.69981,0.90529
788.77128,0.90704
786.84274,0.89835
784.91421,0.87843
782.98567,0.85219
781.05713,0.82581
779.12860,0.81065
777.20006,0.81744
775.27152,0.83876
773.34299,0.85556
771.41445,0.86006
769.48592,0.85989
767.55738,0.86417
765.62884,0.87317
763.70031,0.88183
761.77177,0.88494
759.84324,0.87668
757.91470,0.85780
755.98616,0.84386
754.05763,0.84857
752.12909,0.86518
750.20055,0.87983
748.27202,0.88863
746.34348,0.89369
744.41495,0.89646
742.48641,0.89796
740.55787,0.89951
738.62934,0.90196
736.70080,0.90564
734.77227,0.91025
732.84373,0.91479
730.91519,0.91848
728.98666,0.92097
727.05812,0.92214
725.12959,0.92182
723.20105,0.91937
721.27251,0.91350
719.34398,0.90241
717.41544,0.88515
715.48690,0.86630
713.55837,0.85694
711.62983,0.86194
709.70130,0.87106
707.77276,0.87287
705.84422,0.86929
703.91569,0.86902
701.98715,0.87429
700.05862,0.88201
698.13008,0.88956
696.20154,0.89523
694.27301,0.89872
692.34447,0.90110
690.41593,0.90353
688.48740,0.90659
686.55886,0.91014
684.63033,0.91361
682.70179,0.91657
680.77325,0.91895
678.84472,0.92085
676.91618,0.92252
674.98765,0.92413
673.05911,0.92499
671.13057,0.92365
669.20204,0.92113
667.27350,0.92334
665.34497,0.92662
663.41643,0.92519
661.48789,0.91942
659.55936,0.91288
657.63082,0.91015
655.70228,0.91062
653.77375,0.90584
651.84521,0.89055
649.91668,0.87717
647.98814,0.88087
646.05960,0.89444
644.13107,0.90205
642.20253,0.89906
640.27400,0.88704
638.34546,0.87227
636.41692,0.86629
634.48839,0.87426
632.55985,0.88880
630.63131,0.90093
628.70278,0.90797
626.77424,0.91065
624.84571,0.91026
622.91717,0.90768
620.98863,0.90346
619.06010,0.89867
617.13156,0.89553
615.20303,0.89560
613.27449,0.89765
611.34595,0.89955
609.41742,0.90005
607.48888,0.89916
605.56035,0.89738
603.63181,0.89368
601.70327,0.88422
599.77474,0.86586
597.84620,0.84403
595.91766,0.83136
593.98913,0.83489
592.06059,0.84976
590.13206,0.86430
588.20352,0.86923
586.27498,0.85772
584.34645,0.82346
582.41791,0.77390
580.48938,0.73657
578.56084,0.73362
576.63230,0.75743
574.70377,0.78723
572.77523,0.81196
570.84669,0.83168
568.91816,0.84786
566.98962,0.86024
565.06109,0.86847
563.13255,0.87296
561.20401,0.87435
559.27548,0.87387
557.34694,0.87338
555.41841,0.87429
553.48987,0.87732
551.56133,0.88219
549.63280,0.88756
547.70426,0.89209
545.77573,0.89529
543.84719,0.89704
541.91865,0.89729
539.99012,0.89654
538.06158,0.89548
536.13304,0.89404
534.20451,0.89151
532.27597,0.88792
530.34744,0.88465
528.41890,0.88283
526.49036,0.88156
524.56183,0.87784
522.63329,0.86854
520.70476,0.85235
518.77622,0.83084
516.84768,0.81042
514.91915,0.79957
512.99061,0.80126
511.06207,0.81205
509.13354,0.82538
507.20500,0.83530
505.27647,0.83720
503.34793,0.82523
501.41939,0.79652
499.49086,0.76942
497.56232,0.76845
495.63379,0.79272
493.70525,0.82137
491.77671,0.84005
489.84818,0.84858
487.91964,0.85106
485.99110,0.85029
484.06257,0.84758
482.13403,0.84421
480.20550,0.84273
478.27696,0.84510
476.34842,0.85031
474.41989,0.85649
472.49135,0.86277
470.56282,0.86670
468.63428,0.86822
466.70574,0.87102
464.77721,0.87604
462.84867,0.88142
460.92014,0.88624
458.99160,0.89004
457.06306,0.89222
455.13453,0.89360
453.20599,0.89527
451.27745,0.89694
449.34892,0.89766
447.42038,0.89752
445.49185,0.89728
443.56331,0.89702
441.63477,0.89641
439.70624,0.89527
437.77770,0.89381
435.84917,0.89262
433.92063,0.89162
431.99209,0.89012
430.06356,0.88855
428.13502,0.88825
426.20648,0.88937
424.27795,0.89040
422.34941,0.89052
420.42088,0.89077
418.49234,0.89318
416.56380,0.89687
414.63527,0.89836
412.70673,0.89727
410.77820,0.89553
408.84966,0.89649
406.92112,0.90076
404.99259,0.90424
403.06405,0.90414
401.13552,0.90214
399.20698,0.90021
