3997.85540,0.89349
3995.92686,0.89405
3993.99833,0.89449
3992.06979,0.89461
3990.14125,0.89439
3988.21272,0.89385
3986.28418,0.89359
3984.35565,0.89396
3982.42711,0.89434
3980.49857,0.89431
3978.57004,0.89439
3976.64150,0.89519
3974.71297,0.89628
3972.78443,0.89660
3970.85589,0.89602
3968.92736,0.89517
3966.99882,0.89459
3965.07029,0.89472
3963.14175,0.89566
3961.21321,0.89642
3959.28468,0.89645
3957.35614,0.89633
3955.42760,0.89662
3953.49907,0.89780
3951.57053,0.89995
3949.64200,0.90172
3947.71346,0.90118
3945.78492,0.90003
3943.85639,0.90028
3941.92785,0.89977
3939.99932,0.89776
3938.07078,0.89659
3936.14224,0.89734
3934.21371,0.90018
3932.28517,0.90380
3930.35663,0.90451
3928.42810,0.90281
3926.49956,0.90302
3924.57103,0.90465
3922.64249,0.90410
3920.71395,0.90334
3918.78542,0.90435
3916.85688,0.90373
3914.92835,0.90007
3912.99981,0.89689
3911.07127,0.89595
3909.14274,0.89775
3907.21420,0.90399
3905.28566,0.91489
3903.35713,0.92311
3901.42859,0.92244
3899.50006,0.91654
3897.57152,0.90888
3895.64298,0.90532
3893.71445,0.90853
3891.78591,0.91257
3889.85738,0.90994
3887.92884,0.90818
3886.00030,0.91154
3884.07177,0.91465
3882.14323,0.91508
3880.21470,0.91241
3878.28616,0.90754
3876.35762,0.90742
3874.42909,0.91327
3872.50055,0.92083
3870.57201,0.92519
3868.64348,0.92294
3866.71494,0.92142
3864.78641,0.92449
3862.85787,0.92219
3860.92933,0.91434
3859.00080,0.91210
3857.07226,0.91860
3855.14373,0.93356
3853.21519,0.94529
3851.28665,0.93155
3849.35812,0.91602
3847.42958,0.90905
3845.50104,0.91033
3843.57251,0.91790
3841.64397,0.92878
3839.71544,0.94001
3837.78690,0.94231
3835.85836,0.93335
3833.92983,0.92464
3832.00129,0.91855
3830.07276,0.91485
3828.14422,0.91496
3826.21568,0.91759
3824.28715,0.92207
3822.35861,0.93143
3820.43008,0.93846
3818.50154,0.93481
3816.57300,0.92809
3814.64447,0.91691
3812.71593,0.90750
3810.78739,0.90570
3808.85886,0.91149
3806.93032,0.92003
3805.00179,0.92506
3803.07325,0.93137
3801.14471,0.93543
3799.21618,0.92912
3797.28764,0.92116
3795.35911,0.91218
3793.43057,0.90427
3791.50203,0.90069
3789.57350,0.90063
3787.64496,0.90339
3785.71642,0.90731
3783.78789,0.90843
3781.85935,0.90865
3779.93082,0.91051
3778.00228,0.90851
3776.07374,0.90353
3774.14521,0.90254
3772.21667,0.90748
3770.28814,0.91463
3768.35960,0.91665
3766.43106,0.91455
3764.50253,0.91203
3762.57399,0.91183
3760.64546,0.91670
3758.71692,0.92240
3756.78838,0.92349
3754.85985,0.92691
3752.93131,0.94057
3751.00277,0.95991
3749.07424,0.95924
3747.14570,0.94995
3745.21717,0.94300
3743.28863,0.93467
3741.36009,0.92943
3739.43156,0.93032
3737.50302,0.93804
3735.57449,0.94797
3733.64595,0.94421
3731.71741,0.92920
3729.78888,0.91819
3727.86034,0.91554
3725.93180,0.91845
3724.00327,0.92046
3722.07473,0.91857
3720.14620,0.91438
3718.21766,0.91055
3716.28912,0.91014
3714.36059,0.91619
3712.43205,0.92934
3710.50352,0.93388
3708.57498,0.92141
3706.64644,0.91117
3704.71791,0.90864
3702.78937,0.91047
3700.86084,0.90951
3698.93230,0.90572
3697.00376,0.90482
3695.07523,0.90797
3693.14669,0.91609
3691.21815,0.93054
3689.28962,0.93823
3687.36108,0.92547
3685.43255,0.91286
3683.50401,0.90796
3681.57547,0.90996
3679.64694,0.91825
3677.71840,0.93109
3675.78987,0.94071
3673.86133,0.93675
3671.93279,0.93452
3670.00426,0.93347
3668.07572,0.92088
3666.14718,0.90871
3664.21865,0.90352
3662.29011,0.90287
3660.36158,0.90486
3658.43304,0.90947
3656.50450,0.91448
3654.57597,0.91645
3652.64743,0.92181
3650.71890,0.93908
3648.79036,0.95249
3646.86182,0.93385
3644.93329,0.91715
3643.00475,0.91022
3641.07622,0.90784
3639.14768,0.90695
3637.21914,0.90694
3635.29061,0.90851
3633.36207,0.91253
3631.43353,0.91998
3629.50500,0.92914
3627.57646,0.92538
3625.64793,0.91451
3623.71939,0.91070
3621.79085,0.91522
3619.86232,0.92423
3617.93378,0.92714
3616.00525,0.92539
3614.07671,0.92510
3612.14817,0.92325
3610.21964,0.92065
3608.29110,0.91801
3606.36256,0.91247
3604.43403,0.90854
3602.50549,0.91015
3600.57696,0.91431
3598.64842,0.91582
3596.71988,0.91526
3594.79135,0.91378
3592.86281,0.91079
3590.93428,0.91030
3589.00574,0.91551
3587.07720,0.91938
3585.14867,0.91404
3583.22013,0.90832
3581.29160,0.90609
3579.36306,0.90606
3577.43452,0.90660
3575.50599,0.90642
3573.57745,0.90550
3571.64891,0.90615
3569.72038,0.91141
3567.79184,0.92061
3565.86331,0.92290
3563.93477,0.91626
3562.00623,0.91016
3560.07770,0.90624
3558.14916,0.90384
3556.22063,0.90333
3554.29209,0.90507
3552.36355,0.90695
3550.43502,0.90694
3548.50648,0.90767
3546.57794,0.91009
3544.64941,0.90992
3542.72087,0.90597
3540.79234,0.90242
3538.86380,0.90155
3536.93526,0.90207
3535.00673,0.90189
3533.07819,0.90200
3531.14966,0.90440
3529.22112,0.90803
3527.29258,0.90944
3525.36405,0.90851
3523.43551,0.90704
3521.50697,0.90488
3519.57844,0.90260
3517.64990,0.90108
3515.72137,0.90034
3513.79283,0.90086
3511.86429,0.90267
3509.93576,0.90411
3508.00722,0.90403
3506.07869,0.90463
3504.15015,0.90661
3502.22161,0.90630
3500.29308,0.90359
3498.36454,0.90242
3496.43601,0.90267
3494.50747,0.90214
3492.57893,0.90116
3490.65040,0.90136
3488.72186,0.90240
3486.79332,0.90281
3484.86479,0.90312
3482.93625,0.90415
3481.00772,0.90416
3479.07918,0.90264
3477.15064,0.90193
3475.22211,0.90230
3473.29357,0.90226
3471.36504,0.90188
3469.43650,0.90198
3467.50796,0.90237
3465.57943,0.90271
3463.65089,0.90323
3461.72235,0.90340
3459.79382,0.90267
3457.86528,0.90189
3455.93675,0.90157
3454.00821,0.90145
3452.07967,0.90168
3450.15114,0.90301
3448.22260,0.90522
3446.29407,0.90602
3444.36553,0.90502
3442.43699,0.90406
3440.50846,0.90326
3438.57992,0.90246
3436.65139,0.90208
3434.72285,0.90218
3432.79431,0.90256
3430.86578,0.90286
3428.93724,0.90284
3427.00870,0.90270
3425.08017,0.90297
3423.15163,0.90415
3421.22310,0.90523
3419.29456,0.90470
3417.36602,0.90329
3415.43749,0.90252
3413.50895,0.90243
3411.58042,0.90248
3409.65188,0.90250
3407.72334,0.90257
3405.79481,0.90273
3403.86627,0.90293
3401.93773,0.90301
3400.00920,0.90323
3398.08066,0.90370
3396.15213,0.90407
3394.22359,0.90435
3392.29505,0.90434
3390.36652,0.90369
3388.43798,0.90329
3386.50945,0.90365
3384.58091,0.90395
3382.65237,0.90373
3380.72384,0.90336
3378.79530,0.90312
3376.86677,0.90301
3374.93823,0.90301
3373.00969,0.90306
3371.08116,0.90325
3369.15262,0.90379
3367.22408,0.90456
3365.29555,0.90498
3363.36701,0.90480
3361.43848,0.90450
3359.50994,0.90434
3357.58140,0.90429
3355.65287,0.90418
3353.72433,0.90387
3351.79580,0.90358
3349.86726,0.90351
3347.93872,0.90360
3346.01019,0.90361
3344.08165,0.90356
3342.15311,0.90360
3340.22458,0.90378
3338.29604,0.90408
3336.36751,0.90432
3334.43897,0.90421
3332.51043,0.90395
3330.58190,0.90389
3328.65336,0.90405
3326.72483,0.90425
3324.79629,0.90429
3322.86775,0.90417
3320.93922,0.90408
3319.01068,0.90409
3317.08215,0.90416
3315.15361,0.90443
3313.22507,0.90488
3311.29654,0.90522
3309.36800,0.90526
3307.43946,0.90485
3305.51093,0.90431
3303.58239,0.90414
3301.65386,0.90426
3299.72532,0.90452
3297.79678,0.90474
3295.86825,0.90483
3293.93971,0.90506
3292.01118,0.90533
3290.08264,0.90529
3288.15410,0.90504
3286.22557,0.90486
3284.29703,0.90490
3282.36849,0.90500
3280.43996,0.90514
3278.51142,0.90555
3276.58289,0.90624
3274.65435,0.90668
3272.72581,0.90628
3270.79728,0.90543
3268.86874,0.90499
3266.94021,0.90499
3265.01167,0.90507
3263.08313,0.90514
3261.15460,0.90525
3259.22606,0.90537
3257.29753,0.90559
3255.36899,0.90588
3253.44045,0.90576
3251.51192,0.90527
3249.58338,0.90510
3247.65484,0.90566
3245.72631,0.90644
3243.79777,0.90648
3241.86924,0.90588
3239.94070,0.90553
3238.01216,0.90554
3236.08363,0.90559
3234.15509,0.90567
3232.22656,0.90591
3230.29802,0.90616
3228.36948,0.90610
3226.44095,0.90568
3224.51241,0.90538
3222.58387,0.90568
3220.65534,0.90630
3218.72680,0.90653
3216.79827,0.90648
3214.86973,0.90651
3212.94119,0.90644
3211.01266,0.90630
3209.08412,0.90612
3207.15559,0.90567
3205.22705,0.90529
3203.29851,0.90526
3201.36998,0.90558
3199.44144,0.90616
3197.51290,0.90646
3195.58437,0.90608
3193.65583,0.90553
3191.72730,0.90533
3189.79876,0.90539
3187.87022,0.90558
3185.94169,0.90575
3184.01315,0.90553
3182.08462,0.90525
3180.15608,0.90554
3178.22754,0.90587
3176.29901,0.90544
3174.37047,0.90473
3172.44194,0.90442
3170.51340,0.90443
3168.58486,0.90447
3166.65633,0.90441
3164.72779,0.90431
3162.79925,0.90428
3160.87072,0.90433
3158.94218,0.90442
3157.01365,0.90457
3155.08511,0.90476
3153.15657,0.90487
3151.22804,0.90478
3149.29950,0.90447
3147.37097,0.90408
3145.44243,0.90389
3143.51389,0.90396
3141.58536,0.90412
3139.65682,0.90428
3137.72828,0.90458
3135.79975,0.90518
3133.87121,0.90585
3131.94268,0.90588
3130.01414,0.90542
3128.08560,0.90532
3126.15707,0.90561
3124.22853,0.90594
3122.30000,0.90616
3120.37146,0.90620
3118.44292,0.90627
3116.51439,0.90631
3114.58585,0.90594
3112.65732,0.90539
3110.72878,0.90514
3108.80024,0.90503
3106.87171,0.90481
3104.94317,0.90474
3103.01463,0.90502
3101.08610,0.90501
3099.15756,0.90431
3097.22903,0.90353
3095.30049,0.90263
3093.37195,0.90124
3091.44342,0.89983
3089.51488,0.89881
3087.58635,0.89793
3085.65781,0.89704
3083.72927,0.89621
3081.80074,0.89534
3079.87220,0.89408
3077.94366,0.89241
3076.01513,0.89085
3074.08659,0.88978
3072.15806,0.88911
3070.22952,0.88871
3068.30098,0.88841
3066.37245,0.88762
3064.44391,0.88569
3062.51538,0.88294
3060.58684,0.88042
3058.65830,0.87873
3056.72977,0.87755
3054.80123,0.87652
3052.87270,0.87610
3050.94416,0.87699
3049.01562,0.87891
3047.08709,0.88104
3045.15855,0.88319
3043.23001,0.88542
3041.30148,0.88757
3039.37294,0.88956
3037.44441,0.89144
3035.51587,0.89323
3033.58733,0.89471
3031.65880,0.89535
3029.73026,0.89485
3027.80173,0.89404
3025.87319,0.89370
3023.94465,0.89355
3022.01612,0.89347
3020.08758,0.89372
3018.15904,0.89437
3016.23051,0.89517
3014.30197,0.89569
3012.37344,0.89553
3010.44490,0.89445
3008.51636,0.89289
3006.58783,0.89177
3004.65929,0.89141
3002.73076,0.89141
3000.80222,0.89162
2998.87368,0.89208
2996.94515,0.89250
2995.01661,0.89273
2993.08808,0.89272
2991.15954,0.89241
2989.23100,0.89205
2987.30247,0.89205
2985.37393,0.89244
2983.44539,0.89305
2981.51686,0.89353
2979.58832,0.89332
2977.65979,0.89233
2975.73125,0.89087
2973.80271,0.88889
2971.87418,0.88619
2969.94564,0.88304
2968.01711,0.87979
2966.08857,0.87648
2964.16003,0.87313
2962.23150,0.86974
2960.30296,0.86629
2958.37442,0.86321
2956.44589,0.86103
2954.51735,0.85988
2952.58882,0.85956
2950.66028,0.85995
2948.73174,0.86104
2946.80321,0.86242
2944.87467,0.86349
2942.94614,0.86388
2941.01760,0.86341
2939.08906,0.86211
2937.16053,0.86027
2935.23199,0.85822
2933.30346,0.85620
2931.37492,0.85443
2929.44638,0.85308
2927.51785,0.85225
2925.58931,0.85211
2923.66077,0.85276
2921.73224,0.85409
2919.80370,0.85585
2917.87517,0.85785
2915.94663,0.85977
2914.01809,0.86130
2912.08956,0.86248
2910.16102,0.86352
2908.23249,0.86460
2906.30395,0.86587
2904.37541,0.86732
2902.44688,0.86882
2900.51834,0.87043
2898.58980,0.87225
2896.66127,0.87415
2894.73273,0.87587
2892.80420,0.87739
2890.87566,0.87887
2888.94712,0.88027
2887.01859,0.88146
2885.09005,0.88231
2883.16152,0.88273
2881.23298,0.88271
2879.30444,0.88226
2877.37591,0.88142
2875.44737,0.88034
2873.51883,0.87898
2871.59030,0.87741
2869.66176,0.87619
2867.73323,0.87572
2865.80469,0.87564
2863.87615,0.87551
2861.94762,0.87527
2860.01908,0.87478
2858.09055,0.87388
2856.16201,0.87291
2854.23347,0.87247
2852.30494,0.87284
2850.37640,0.87405
2848.44787,0.87590
2846.51933,0.87792
2844.59079,0.87977
2842.66226,0.88149
2840.73372,0.88306
2838.80518,0.88417
2836.87665,0.88463
2834.94811,0.88471
2833.01958,0.88480
2831.09104,0.88516
2829.16250,0.88602
2827.23397,0.88747
2825.30543,0.88930
2823.37690,0.89121
2821.44836,0.89292
2819.51982,0.89429
2817.59129,0.89532
2815.66275,0.89616
2813.73421,0.89698
2811.80568,0.89779
2809.87714,0.89844
2807.94861,0.89886
2806.02007,0.89912
2804.09153,0.89941
2802.16300,0.89981
2800.23446,0.90027
2798.30593,0.90068
2796.37739,0.90100
2794.44885,0.90123
2792.52032,0.90143
2790.59178,0.90162
2788.66325,0.90178
2786.73471,0.90190
2784.80617,0.90208
2782.87764,0.90229
2780.94910,0.90247
2779.02056,0.90266
2777.09203,0.90287
2775.16349,0.90308
2773.23496,0.90327
2771.30642,0.90340
2769.37788,0.90349
2767.44935,0.90356
2765.52081,0.90365
2763.59228,0.90375
2761.66374,0.90388
2759.73520,0.90404
2757.80667,0.90421
2755.87813,0.90435
2753.94959,0.90447
2752.02106,0.90461
2750.09252,0.90472
2748.16399,0.90475
2746.23545,0.90471
2744.30691,0.90468
2742.37838,0.90470
2740.44984,0.90476
2738.52131,0.90481
2736.59277,0.90486
2734.66423,0.90495
2732.73570,0.90506
2730.80716,0.90516
2728.87863,0.90528
2726.95009,0.90536
2725.02155,0.90541
2723.09302,0.90549
2721.16448,0.90560
2719.23594,0.90571
2717.30741,0.90583
2715.37887,0.90594
2713.45034,0.90599
2711.52180,0.90599
2709.59326,0.90603
2707.66473,0.90611
2705.73619,0.90620
2703.80766,0.90631
2701.87912,0.90646
2699.95058,0.90656
2698.02205,0.90657
2696.09351,0.90653
2694.16497,0.90650
2692.23644,0.90646
2690.30790,0.90633
2688.37937,0.90611
2686.45083,0.90583
2684.52229,0.90554
2682.59376,0.90542
2680.66522,0.90547
2678.73669,0.90556
2676.80815,0.90564
2674.87961,0.90571
2672.95108,0.90582
2671.02254,0.90599
2669.09401,0.90616
2667.16547,0.90629
2665.23693,0.90636
2663.30840,0.90642
2661.37986,0.90648
2659.45132,0.90651
2657.52279,0.90655
2655.59425,0.90667
2653.66572,0.90681
2651.73718,0.90689
2649.80864,0.90691
2647.88011,0.90691
2645.95157,0.90690
2644.02304,0.90693
2642.09450,0.90708
2640.16596,0.90730
2638.23743,0.90744
2636.30889,0.90748
2634.38035,0.90752
2632.45182,0.90750
2630.52328,0.90742
2628.59475,0.90747
2626.66621,0.90769
2624.73767,0.90789
2622.80914,0.90793
2620.88060,0.90791
2618.95207,0.90802
2617.02353,0.90823
2615.09499,0.90841
2613.16646,0.90849
2611.23792,0.90857
2609.30939,0.90873
2607.38085,0.90899
2605.45231,0.90934
2603.52378,0.90969
2601.59524,0.90989
2599.66670,0.91003
2597.73817,0.91018
2595.80963,0.91027
2593.88110,0.91035
2591.95256,0.91040
2590.02402,0.91037
2588.09549,0.91031
2586.16695,0.91037
2584.23842,0.91051
2582.30988,0.91064
2580.38134,0.91076
2578.45281,0.91090
2576.52427,0.91103
2574.59573,0.91110
2572.66720,0.91113
2570.73866,0.91121
2568.81013,0.91133
2566.88159,0.91146
2564.95305,0.91157
2563.02452,0.91167
2561.09598,0.91176
2559.16745,0.91185
2557.23891,0.91196
2555.31037,0.91210
2553.38184,0.91221
2551.45330,0.91224
2549.52476,0.91228
2547.59623,0.91239
2545.66769,0.91252
2543.73916,0.91261
2541.81062,0.91268
2539.88208,0.91281
2537.95355,0.91303
2536.02501,0.91322
2534.09648,0.91327
2532.16794,0.91326
2530.23940,0.91332
2528.31087,0.91345
2526.38233,0.91354
2524.45380,0.91352
2522.52526,0.91349
2520.59672,0.91354
2518.66819,0.91357
2516.73965,0.91356
2514.81111,0.91359
2512.88258,0.91362
2510.95404,0.91365
2509.02551,0.91359
2507.09697,0.91340
2505.16843,0.91321
2503.23990,0.91320
2501.31136,0.91327
2499.38283,0.91334
2497.45429,0.91343
2495.52575,0.91352
2493.59722,0.91360
2491.66868,0.91374
2489.74014,0.91386
2487.81161,0.91387
2485.88307,0.91391
2483.95454,0.91415
2482.02600,0.91443
2480.09746,0.91457
2478.16893,0.91472
2476.24039,0.91493
2474.31186,0.91496
2472.38332,0.91480
2470.45478,0.91464
2468.52625,0.91453
2466.59771,0.91443
2464.66918,0.91433
2462.74064,0.91418
2460.81210,0.91396
2458.88357,0.91369
2456.95503,0.91349
2455.02649,0.91351
2453.09796,0.91362
2451.16942,0.91365
2449.24089,0.91366
2447.31235,0.91371
2445.38381,0.91378
2443.45528,0.91390
2441.52674,0.91408
2439.59821,0.91427
2437.66967,0.91449
2435.74113,0.91482
2433.81260,0.91518
2431.88406,0.91549
2429.95552,0.91567
2428.02699,0.91566
2426.09845,0.91554
2424.16992,0.91558
2422.24138,0.91574
2420.31284,0.91580
2418.38431,0.91577
2416.45577,0.91579
2414.52724,0.91581
2412.59870,0.91587
2410.67016,0.91596
2408.74163,0.91605
2406.81309,0.91613
2404.88456,0.91618
2402.95602,0.91615
2401.02748,0.91610
2399.09895,0.91612
2397.17041,0.91621
2395.24187,0.91630
2393.31334,0.91627
2391.38480,0.91609
2389.45627,0.91571
2387.52773,0.91496
2385.59919,0.91368
2383.67066,0.91198
2381.74212,0.91029
2379.81359,0.90907
2377.88505,0.90835
2375.95651,0.90782
2374.02798,0.90723
2372.09944,0.90655
2370.17090,0.90584
2368.24237,0.90522
2366.31383,0.90482
2364.38530,0.90445
2362.45676,0.90383
2360.52822,0.90286
2358.59969,0.90193
2356.67115,0.90163
2354.74262,0.90163
2352.81408,0.90158
2350.88554,0.90193
2348.95701,0.90253
2347.02847,0.90272
2345.09994,0.90249
2343.17140,0.90297
2341.24286,0.90437
2339.31433,0.90573
2337.38579,0.90659
2335.45725,0.90663
2333.52872,0.90557
2331.60018,0.90411
2329.67165,0.90329
2327.74311,0.90296
2325.81457,0.90263
2323.88604,0.90236
2321.95750,0.90249
2320.02897,0.90331
2318.10043,0.90455
2316.17189,0.90553
2314.24336,0.90584
2312.31482,0.90584
2310.38628,0.90621
2308.45775,0.90712
2306.52921,0.90836
2304.60068,0.90964
2302.67214,0.91064
2300.74360,0.91134
2298.81507,0.91202
2296.88653,0.91289
2294.95800,0.91386
2293.02946,0.91470
2291.10092,0.91545
2289.17239,0.91627
2287.24385,0.91714
2285.31532,0.91787
2283.38678,0.91833
2281.45824,0.91857
2279.52971,0.91877
2277.60117,0.91912
2275.67263,0.91954
2273.74410,0.91975
2271.81556,0.91979
2269.88703,0.91999
2267.95849,0.92034
2266.02995,0.92050
2264.10142,0.92042
2262.17288,0.92042
2260.24435,0.92058
2258.31581,0.92080
2256.38727,0.92107
2254.45874,0.92131
2252.53020,0.92140
2250.60166,0.92149
2248.67313,0.92178
2246.74459,0.92217
2244.81606,0.92244
2242.88752,0.92260
2240.95898,0.92283
2239.03045,0.92319
2237.10191,0.92352
2235.17338,0.92358
2233.24484,0.92355
2231.31630,0.92376
2229.38777,0.92391
2227.45923,0.92393
2225.53070,0.92425
2223.60216,0.92475
2221.67362,0.92501
2219.74509,0.92498
2217.81655,0.92484
2215.88801,0.92484
2213.95948,0.92512
2212.03094,0.92558
2210.10241,0.92591
2208.17387,0.92578
2206.24533,0.92546
2204.31680,0.92541
2202.38826,0.92555
2200.45973,0.92569
2198.53119,0.92574
2196.60265,0.92564
2194.67412,0.92557
2192.74558,0.92570
2190.81704,0.92606
2188.88851,0.92649
2186.95997,0.92662
2185.03144,0.92662
2183.10290,0.92704
2181.17436,0.92749
2179.24583,0.92769
2177.31729,0.92801
2175.38876,0.92829
2173.46022,0.92840
2171.53168,0.92846
2169.60315,0.92830
2167.67461,0.92813
2165.74607,0.92830
2163.81754,0.92872
2161.88900,0.92964
2159.96047,0.93123
2158.03193,0.93203
2156.10339,0.93143
2154.17486,0.93068
2152.24632,0.93010
2150.31779,0.92942
2148.38925,0.92902
2146.46071,0.92897
2144.53218,0.92890
2142.60364,0.92885
2140.67511,0.92894
2138.74657,0.92914
2136.81803,0.92926
2134.88950,0.92908
2132.96096,0.92866
2131.03242,0.92803
2129.10389,0.92737
2127.17535,0.92706
2125.24682,0.92709
2123.31828,0.92719
2121.38974,0.92724
2119.46121,0.92724
2117.53267,0.92724
2115.60414,0.92726
2113.67560,0.92728
2111.74706,0.92728
2109.81853,0.92732
2107.88999,0.92745
2105.96145,0.92762
2104.03292,0.92768
2102.10438,0.92755
2100.17585,0.92744
2098.24731,0.92754
2096.31877,0.92768
2094.39024,0.92760
2092.46170,0.92752
2090.53317,0.92768
2088.60463,0.92786
2086.67609,0.92773
2084.74756,0.92747
2082.81902,0.92739
2080.89049,0.92748
2078.96195,0.92770
2077.03341,0.92795
2075.10488,0.92808
2073.17634,0.92809
2071.24780,0.92819
2069.31927,0.92861
2067.39073,0.92939
2065.46220,0.93000
2063.53366,0.92988
2061.60512,0.92955
2059.67659,0.92957
2057.74805,0.92969
2055.81952,0.92972
2053.89098,0.92962
2051.96244,0.92970
2050.03391,0.93028
2048.10537,0.93098
2046.17683,0.93154
2044.24830,0.93244
2042.31976,0.93365
2040.39123,0.93443
2038.46269,0.93461
2036.53415,0.93485
2034.60562,0.93531
2032.67708,0.93528
2030.74855,0.93480
2028.82001,0.93478
2026.89147,0.93511
2024.96294,0.93517
2023.03440,0.93532
2021.10587,0.93621
2019.17733,0.93761
2017.24879,0.93812
2015.32026,0.93688
2013.39172,0.93551
2011.46318,0.93536
2009.53465,0.93585
2007.60611,0.93613
2005.67758,0.93600
2003.74904,0.93534
2001.82050,0.93451
1999.89197,0.93396
1997.96343,0.93363
1996.03490,0.93385
1994.10636,0.93522
1992.17782,0.93661
1990.24929,0.93627
1988.32075,0.93489
1986.39221,0.93347
1984.46368,0.93224
1982.53514,0.93127
1980.60661,0.93072
1978.67807,0.93115
1976.74953,0.93208
1974.82100,0.93232
1972.89246,0.93185
1970.96393,0.93187
1969.03539,0.93316
1967.10685,0.93399
1965.17832,0.93263
1963.24978,0.93084
1961.32125,0.93002
1959.39271,0.92967
1957.46417,0.92969
1955.53564,0.92993
1953.60710,0.92993
1951.67856,0.92995
1949.75003,0.93041
1947.82149,0.93176
1945.89296,0.93412
1943.96442,0.93635
1942.03588,0.93584
1940.10735,0.93274
1938.17881,0.93043
1936.25028,0.92974
1934.32174,0.92964
1932.39320,0.92939
1930.46467,0.92901
1928.53613,0.92898
1926.60759,0.93016
1924.67906,0.93298
1922.75052,0.93519
1920.82199,0.93543
1918.89345,0.93535
1916.96491,0.93382
1915.03638,0.93095
1913.10784,0.92999
1911.17931,0.93142
1909.25077,0.93241
1907.32223,0.93112
1905.39370,0.92930
1903.46516,0.92824
1901.53663,0.92748
1899.60809,0.92721
1897.67955,0.92835
1895.75102,0.93001
1893.82248,0.93049
1891.89394,0.93128
1889.96541,0.93281
1888.03687,0.93220
1886.10834,0.93047
1884.17980,0.92965
1882.25126,0.92909
1880.32273,0.92877
1878.39419,0.92890
1876.46566,0.92925
1874.53712,0.93010
1872.60858,0.93305
1870.68005,0.94006
1868.75151,0.94676
1866.82297,0.94344
1864.89444,0.93598
1862.96590,0.93220
1861.03737,0.93158
1859.10883,0.93162
1857.18029,0.93121
1855.25176,0.93069
1853.32322,0.93057
1851.39469,0.93136
1849.46615,0.93391
1847.53761,0.93870
1845.60908,0.94423
1843.68054,0.94420
1841.75200,0.93796
1839.82347,0.93400
1837.89493,0.93349
1835.96640,0.93302
1834.03786,0.93292
1832.10932,0.93690
1830.18079,0.94283
1828.25225,0.94264
1826.32372,0.93895
1824.39518,0.93545
1822.46664,0.93129
1820.53811,0.92832
1818.60957,0.92744
1816.68104,0.92745
1814.75250,0.92847
1812.82396,0.93159
1810.89543,0.93454
1808.96689,0.93385
1807.03835,0.93188
1805.10982,0.93215
1803.18128,0.93561
1801.25275,0.94037
1799.32421,0.94223
1797.39567,0.94227
1795.46714,0.94518
1793.53860,0.95103
1791.61007,0.95084
1789.68153,0.94229
1787.75299,0.93650
1785.82446,0.93581
1783.89592,0.93740
1781.96738,0.93950
1780.03885,0.94030
1778.11031,0.93979
1776.18178,0.94275
1774.25324,0.95211
1772.32470,0.96067
1770.39617,0.95512
1768.46763,0.94438
1766.53910,0.93804
1764.61056,0.93775
1762.68202,0.94148
1760.75349,0.94308
1758.82495,0.94172
1756.89642,0.94033
1754.96788,0.93919
1753.03934,0.94198
1751.11081,0.95155
1749.18227,0.96004
1747.25373,0.95750
1745.32520,0.95129
1743.39666,0.94802
1741.46813,0.94809
1739.53959,0.94840
1737.61105,0.94858
1735.68252,0.95342
1733.75398,0.95950
1731.82545,0.95310
1729.89691,0.94248
1727.96837,0.93512
1726.03984,0.93271
1724.11130,0.93424
1722.18276,0.93785
1720.25423,0.94591
1718.32569,0.96326
1716.39716,0.97456
1714.46862,0.96135
1712.54008,0.94830
1710.61155,0.94396
1708.68301,0.94751
1706.75448,0.95664
1704.82594,0.96372
1702.89740,0.96599
1700.96887,0.97284
1699.04033,0.98442
1697.11180,0.98294
1695.18326,0.96625
1693.25472,0.95310
1691.32619,0.95061
1689.39765,0.95505
1687.46911,0.96263
1685.54058,0.97331
1683.61204,0.97743
1681.68351,0.96585
1679.75497,0.95611
1677.82643,0.95316
1675.89790,0.95618
1673.96936,0.96060
1672.04083,0.96536
1670.11229,0.96810
1668.18375,0.95840
1666.25522,0.94928
1664.32668,0.94974
1662.39814,0.95217
1660.46961,0.94836
1658.54107,0.94649
1656.61254,0.95266
1654.68400,0.96818
1652.75546,0.98085
1650.82693,0.97655
1648.89839,0.97880
1646.96986,0.98029
1645.04132,0.96419
1643.11278,0.95085
1641.18425,0.94767
1639.25571,0.95312
1637.32718,0.96463
1635.39864,0.96312
1633.47010,0.94457
1631.54157,0.93382
1629.61303,0.93129
1627.68449,0.93226
1625.75596,0.93458
1623.82742,0.93800
1621.89889,0.93729
1619.97035,0.93620
1618.04181,0.94092
1616.11328,0.94093
1614.18474,0.93064
1612.25621,0.92444
1610.32767,0.92495
1608.39913,0.92736
1606.47060,0.92782
1604.54206,0.92820
1602.61352,0.92870
1600.68499,0.92717
1598.75645,0.92498
1596.82792,0.92431
1594.89938,0.92313
1592.97084,0.91890
1591.04231,0.91240
1589.11377,0.90431
1587.18524,0.89567
1585.25670,0.88836
1583.32816,0.88397
1581.39963,0.88437
1579.47109,0.89186
1577.54256,0.90767
1575.61402,0.92037
1573.68548,0.92009
1571.75695,0.92306
1569.82841,0.93101
1567.89987,0.93131
1565.97134,0.92582
1564.04280,0.92154
1562.11427,0.92081
1560.18573,0.92724
1558.25719,0.93010
1556.32866,0.92078
1554.40012,0.91914
1552.47159,0.92269
1550.54305,0.92873
1548.61451,0.93485
1546.68598,0.94317
1544.75744,0.96110
1542.82890,0.99080
1540.90037,1.00957
1538.97183,0.98370
1537.04330,0.96428
1535.11476,0.96069
1533.18622,0.95885
1531.25769,0.95208
1529.32915,0.95036
1527.40062,0.95700
1525.47208,0.96699
1523.54354,0.97755
1521.61501,0.98321
1519.68647,0.97624
1517.75793,0.96625
1515.82940,0.95377
1513.90086,0.94284
1511.97233,0.93984
1510.04379,0.94629
1508.11525,0.95327
1506.18672,0.91258
1504.25818,0.86374
1502.32965,0.83050
1500.40111,0.79697
1498.47257,0.75862
1496.54404,0.72370
1494.61550,0.71331
1492.68697,0.72670
1490.75843,0.75802
1488.82989,0.78238
1486.90136,0.76645
1484.97282,0.73900
1483.04428,0.71893
1481.11575,0.71143
1479.18721,0.72108
1477.25868,0.74945
1475.33014,0.79355
1473.40160,0.83982
1471.47307,0.85888
1469.54453,0.85642
1467.61600,0.85402
1465.68746,0.85138
1463.75892,0.84257
1461.83039,0.83734
1459.90185,0.84445
1457.97331,0.85797
1456.04478,0.84066
1454.11624,0.80832
1452.18771,0.78410
1450.25917,0.76722
1448.33063,0.75956
1446.40210,0.76048
1444.47356,0.76426
1442.54503,0.76032
1440.61649,0.74169
1438.68795,0.71495
1436.75942,0.69017
1434.83088,0.67791
1432.90235,0.67844
1430.97381,0.68761
1429.04527,0.70347
1427.11674,0.72344
1425.18820,0.74963
1423.25966,0.77819
1421.33113,0.79930
1419.40259,0.81437
1417.47406,0.82072
1415.54552,0.81993
1413.61698,0.82163
1411.68845,0.82611
1409.75991,0.83015
1407.83138,0.83396
1405.90284,0.83981
1403.97430,0.84638
1402.04577,0.85342
1400.11723,0.86488
1398.18869,0.87920
1396.26016,0.88866
1394.33162,0.88913
1392.40309,0.88457
1390.47455,0.88304
1388.54601,0.88653
1386.61748,0.88974
1384.68894,0.88862
1382.76041,0.88728
1380.83187,0.88733
1378.90333,0.88791
1376.97480,0.88984
1375.04626,0.89226
1373.11773,0.89076
1371.18919,0.88797
1369.26065,0.88903
1367.33212,0.89301
1365.40358,0.89919
1363.47504,0.90806
1361.54651,0.91401
1359.61797,0.91415
1357.68944,0.91399
1355.76090,0.91497
1353.83236,0.91551
1351.90383,0.91630
1349.97529,0.91843
1348.04676,0.92058
1346.11822,0.92172
1344.18968,0.92274
1342.26115,0.92489
1340.33261,0.92592
1338.40407,0.91894
1336.47554,0.90406
1334.54700,0.88691
1332.61847,0.86827
1330.68993,0.84709
1328.76139,0.82312
1326.83286,0.79696
1324.90432,0.77011
1322.97579,0.74556
1321.04725,0.72652
1319.11871,0.71426
1317.19018,0.70924
1315.26164,0.71130
1313.33311,0.71855
1311.40457,0.72885
1309.47603,0.74215
1307.54750,0.75882
1305.61896,0.77711
1303.69042,0.79550
1301.76189,0.81355
1299.83335,0.82996
1297.90482,0.84313
1295.97628,0.85258
1294.04774,0.85935
1292.11921,0.86447
1290.19067,0.86719
1288.26214,0.86521
1286.33360,0.85679
1284.40506,0.84247
1282.47653,0.82479
1280.54799,0.80787
1278.61945,0.79591
1276.69092,0.79047
1274.76238,0.79046
1272.83385,0.79483
1270.90531,0.80334
1268.97677,0.81503
1267.04824,0.82788
1265.11970,0.83991
1263.19117,0.85029
1261.26263,0.85898
1259.33409,0.86563
1257.40556,0.87017
1255.47702,0.87253
1253.54849,0.87138
1251.61995,0.86565
1249.69141,0.85640
1247.76288,0.84669
1245.83434,0.83994
1243.90580,0.83810
1241.97727,0.84056
1240.04873,0.84458
1238.12020,0.84681
1236.19166,0.84449
1234.26312,0.83525
1232.33459,0.81650
1230.40605,0.78676
1228.47752,0.74965
1226.54898,0.71662
1224.62044,0.70308
1222.69191,0.71720
1220.76337,0.75206
1218.83483,0.79200
1216.90630,0.82518
1214.97776,0.84898
1213.04923,0.86591
1211.12069,0.87820
1209.19215,0.88690
1207.26362,0.89290
1205.33508,0.89700
1203.40655,0.89972
1201.47801,0.90155
1199.54947,0.90284
1197.62094,0.90325
1195.69240,0.90193
1193.76387,0.89842
1191.83533,0.89310
1189.90679,0.88713
1187.97826,0.88233
1186.04972,0.88023
1184.12118,0.88099
1182.19265,0.88340
1180.26411,0.88573
1178.33558,0.88607
1176.40704,0.88250
1174.47850,0.87380
1172.54997,0.86049
1170.62143,0.84508
1168.69290,0.83026
1166.76436,0.81738
1164.83582,0.80682
1162.90729,0.79940
1160.97875,0.79670
1159.05021,0.79967
1157.12168,0.80654
1155.19314,0.81170
1153.26461,0.80788
1151.33607,0.79043
1149.40753,0.75932
1147.47900,0.71858
1145.55046,0.67595
1143.62193,0.64222
1141.69339,0.62755
1139.76485,0.63532
1137.83632,0.65896
1135.90778,0.68629
1133.97924,0.70907
1132.05071,0.72720
1130.12217,0.74321
1128.19364,0.75720
1126.26510,0.76864
1124.33656,0.77819
1122.40803,0.78627
1120.47949,0.79236
1118.55096,0.79663
1116.62242,0.80103
1114.69388,0.80774
1112.76535,0.81683
1110.83681,0.82652
1108.90828,0.83422
1106.97974,0.83571
1105.05120,0.82583
1103.12267,0.80397
1101.19413,0.77805
1099.26559,0.75930
1097.33706,0.75237
1095.40852,0.75395
1093.47999,0.76086
1091.55145,0.77426
1089.62291,0.79494
1087.69438,0.81872
1085.76584,0.83859
1083.83731,0.84934
1081.90877,0.84825
1079.98023,0.83331
1078.05170,0.80386
1076.12316,0.76444
1074.19462,0.72756
1072.26609,0.70940
1070.33755,0.71845
1068.40902,0.74886
1066.48048,0.78637
1064.55194,0.81892
1062.62341,0.84186
1060.69487,0.85610
1058.76634,0.86381
1056.83780,0.86646
1054.90926,0.86487
1052.98073,0.85935
1051.05219,0.84994
1049.12366,0.83740
1047.19512,0.82408
1045.26658,0.81376
1043.33805,0.80982
1041.40951,0.81316
1039.48097,0.82205
1037.55244,0.83339
1035.62390,0.84397
1033.69537,0.85108
1031.76683,0.85254
1029.83829,0.84777
1027.90976,0.83911
1025.98122,0.82878
1024.05269,0.81479
1022.12415,0.79492
1020.19561,0.77384
1018.26708,0.76072
1016.33854,0.75889
1014.41000,0.76059
1012.48147,0.75314
1010.55293,0.73071
1008.62440,0.69775
1006.69586,0.66076
1004.76732,0.62342
1002.83879,0.59275
1000.91025,0.58100
998.98172,0.59690
997.05318,0.63789
995.12464,0.69031
993.19611,0.73840
991.26757,0.77430
989.33904,0.79890
987.41050,0.81610
985.48196,0.82918
983.55343,0.83985
981.62489,0.84854
979.69635,0.85522
977.76782,0.86000
975.83928,0.86328
973.91075,0.86560
971.98221,0.86770
970.05367,0.87036
968.12514,0.87414
966.19660,0.87891
964.26807,0.88372
962.33953,0.88753
960.41099,0.89007
958.48246,0.89171
956.55392,0.89299
954.62538,0.89433
952.69685,0.89592
950.76831,0.89773
948.83978,0.89967
946.91124,0.90152
944.98270,0.90257
943.05417,0.90204
941.12563,0.89956
939.19710,0.89545
937.26856,0.89063
935.34002,0.88606
933.41149,0.88221
931.48295,0.87831
929.55442,0.87209
927.62588,0.86141
925.69734,0.84654
923.76881,0.83052
921.84027,0.81807
919.91173,0.81343
917.98320,0.81735
916.05466,0.82583
914.12613,0.83273
912.19759,0.83414
910.26905,0.82980
908.34052,0.82178
906.41198,0.81275
904.48345,0.80506
902.55491,0.80021
900.62637,0.79863
898.69784,0.79963
896.76930,0.80137
894.84076,0.80150
892.91223,0.79794
890.98369,0.78949
889.05516,0.77638
887.12662,0.76030
885.19808,0.74384
883.26955,0.72981
881.34101,0.72091
879.41248,0.71964
877.48394,0.72783
875.55540,0.74494
873.62687,0.76726
871.69833,0.78959
869.76980,0.80762
867.84126,0.81845
865.91272,0.81995
863.98419,0.81185
862.05565,0.79760
860.12711,0.78407
858.19858,0.77778
856.27004,0.78058
854.34151,0.78965
852.41297,0.80133
850.48443,0.81371
848.55590,0.82599
846.62736,0.83764
844.69883,0.84850
842.77029,0.85880
840.84175,0.86861
838.91322,0.87758
836.98468,0.88535
835.05614,0.89174
833.12761,0.89662
831.19907,0.89991
829.27054,0.90164
827.34200,0.90197
825.41346,0.90123
823.48493,0.89963
821.55639,0.89708
819.62786,0.89344
817.69932,0.88875
815.77078,0.88368
813.84225,0.87903
811.91371,0.87502
809.98517,0.87179
808.05664,0.86992
806.12810,0.86981
804.19957,0.87113
802.27103,0.87301
800.34249,0.87464
798.41396,0.87634
796.48542,0.87960
794.55689,0.88499
792.62835,0.89089
790.69981,0.89491
788.77128,0.89455
786.84274,0.88631
784.91421,0.87030
782.98567,0.85414
781.05713,0.84310
779.12860,0.83341
777.20006,0.82140
775.27152,0.80753
773.34299,0.79197
771.41445,0.77661
769.48592,0.77067
767.55738,0.78319
765.62884,0.80640
763.70031,0.81888
761.77177,0.80700
759.84324,0.77580
757.91470,0.74341
755.98616,0.72435
754.05763,0.71474
752.12909,0.69973
750.20055,0.67301
748.27202,0.64262
746.34348,0.62164
744.41495,0.61709
742.48641,0.62855
740.55787,0.65581
738.62934,0.69861
736.70080,0.74726
734.77227,0.78661
732.84373,0.81104
730.91519,0.82544
728.98666,0.83408
727.05812,0.83915
725.12959,0.84249
723.20105,0.84194
721.27251,0.83312
719.34398,0.81611
717.41544,0.79600
715.48690,0.77648
713.55837,0.75841
711.62983,0.74289
709.70130,0.73145
707.77276,0.72208
705.84422,0.70758
703.91569,0.68391
701.98715,0.65587
700.05862,0.62890
698.13008,0.60325
696.20154,0.58015
694.27301,0.56660
692.34447,0.57097
690.41593,0.59625
688.48740,0.63460
686.55886,0.67294
684.63033,0.70808
682.70179,0.74443
680.77325,0.77956
678.84472,0.80676
676.91618,0.82454
674.98765,0.83549
673.05911,0.84097
671.13057,0.84051
669.20204,0.83395
667.27350,0.83111
665.34497,0.83982
663.41643,0.85132
661.48789,0.86013
659.55936,0.86411
657.63082,0.86469
655.70228,0.85831
653.77375,0.83915
651.84521,0.81757
649.91668,0.81571
647.98814,0.83692
646.05960,0.86222
644.13107,0.87749
642.20253,0.88237
640.27400,0.88178
638.34546,0.87916
636.41692,0.87493
634.48839,0.86936
632.55985,0.86281
630.63131,0.85129
628.70278,0.83184
626.77424,0.81412
624.84571,0.81347
622.91717,0.82882
620.98863,0.84469
619.06010,0.85575
617.13156,0.86874
615.20303,0.88450
613.27449,0.89664
611.34595,0.90319
609.41742,0.90606
607.48888,0.90697
605.56035,0.90678
603.63181,0.90552
601.70327,0.90264
599.77474,0.89760
597.84620,0.89062
595.91766,0.88300
593.98913,0.87582
592.06059,0.86900
590.13206,0.86021
588.20352,0.84194
586.27498,0.80381
584.34645,0.75167
582.41791,0.71446
580.48938,0.71117
578.56084,0.73230
576.63230,0.76249
574.70377,0.79348
572.77523,0.81832
570.84669,0.83301
568.91816,0.83350
566.98962,0.81637
565.06109,0.78487
563.13255,0.74985
561.20401,0.72842
559.27548,0.73327
557.34694,0.75749
555.41841,0.78031
553.48987,0.79042
551.56133,0.79511
549.63280,0.80683
547.70426,0.82752
545.77573,0.84669
543.84719,0.85110
541.91865,0.83063
539.99012,0.77773
538.06158,0.69900
536.13304,0.62781
534.20451,0.60455
532.27597,0.63789
530.34744,0.69890
528.41890,0.75081
526.49036,0.77182
524.56183,0.76075
522.63329,0.74215
520.70476,0.73811
518.77622,0.74526
516.84768,0.73985
514.91915,0.71258
512.99061,0.67756
511.06207,0.64598
509.13354,0.62134
507.20500,0.59724
505.27647,0.56506
503.34793,0.52747
501.41939,0.49584
499.49086,0.47811
497.56232,0.47033
495.63379,0.47047
493.70525,0.48080
491.77671,0.50496
489.84818,0.54733
487.91964,0.60324
485.99110,0.66143
484.06257,0.71031
482.13403,0.74330
480.20550,0.76505
478.27696,0.78218
476.34842,0.79558
474.41989,0.80575
472.49135,0.81305
470.56282,0.81514
468.63428,0.81277
466.70574,0.80767
464.77721,0.79966
462.84867,0.78877
460.92014,0.77773
458.99160,0.76923
457.06306,0.76193
455.13453,0.75650
453.20599,0.75764
451.27745,0.76721
449.34892,0.78060
447.42038,0.79130
445.49185,0.79503
443.56331,0.79244
441.63477,0.78686
439.70624,0.78200
437.77770,0.77904
435.84917,0.77554
433.92063,0.77013
431.99209,0.76328
430.06356,0.75685
428.13502,0.75620
426.20648,0.76536
424.27795,0.78246
422.34941,0.80045
420.42088,0.81680
418.49234,0.83095
416.56380,0.83599
414.63527,0.83738
412.70673,0.83859
410.77820,0.83813
408.84966,0.83765
406.92112,0.83986
404.99259,0.84269
403.06405,0.84396
401.13552,0.84516
399.20698,0.84960
