"Potential applied (V)","Fitted WE(1).d.Current","Corrected WE(1).d.Current (A)"
0,1.8341064453125e-06,-1.31225585937506e-07
0.005035400390625,1.84305826822916e-06,1.22273763020839e-07
0.01007080078125,1.85201009114583e-06,5.2286783854171e-08
0.015106201171875,1.8609619140625e-06,1.89208984374984e-08
0.0201416015625,1.86991373697917e-06,8.13802083325536e-10
0.025177001953125,1.87886555989583e-06,-7.22249348958406e-09
0.03021240234375,1.8878173828125e-06,-3.96728515625016e-09
0.035247802734375,1.90231323242188e-06,-1.05285644531249e-08
0.040283203125,1.91680908203125e-06,-7.62939453125043e-09
0.045318603515625,1.93305969238281e-06,-8.62121582031308e-09
0.05035400390625,1.94931030273438e-06,-1.14440917968754e-08
0.055389404296875,1.97067260742188e-06,-9.9182128906256e-09
0.0604248046875,1.99203491210938e-06,-1.20544433593756e-08
0.065460205078125,2.01454162597656e-06,-1.04522705078132e-08
0.07049560546875,2.03704833984375e-06,-3.05175781250051e-09
0.075531005859375,2.05955505371094e-06,-1.54876708984386e-08
0.08056640625,2.08206176757813e-06,-1.29699707031261e-08
0.085601806640625,2.10968017578125e-06,-1.46484375000015e-08
0.09063720703125,2.13729858398438e-06,-1.38854980468762e-08
0.095672607421875,2.16542181746789e-06,-1.4237735436637e-08
0.1007080078125,2.1935450509514e-06,-1.03175118888978e-08
0.105743408203125,2.22166704472958e-06,-1.03633337920773e-08
0.11077880859375,2.24978903850776e-06,-9.18845257025677e-09
0.115814208984375,2.27790917802242e-06,-1.01479475536712e-08
0.120849609375,2.30602931753709e-06,-8.05568472458559e-09
0.125885009765625,2.33414699350185e-06,-3.51955209559554e-09
0.13092041015625,2.3622646694666e-06,-2.95070462285522e-09
0.135955810546875,2.39037927915655e-06,-8.52911969048291e-10
0.1409912109375,2.41849388884649e-06,-5.861740027415e-10
0.146026611328125,2.44660483737105e-06,1.21010403520047e-09
0.15106201171875,2.47471578589561e-06,9.10989769814176e-09
0.156097412109375,2.50282248745191e-06,1.18259500480881e-08
0.1611328125,2.53092918900822e-06,1.5762705523034e-08
0.166168212890625,2.5590310681123e-06,1.84835803252023e-08
0.17120361328125,2.58713294721638e-06,2.60872676273699e-08
0.176239013671875,2.61522943990964e-06,3.2475638215359e-08
0.1812744140625,2.6433259326029e-06,4.00847119283476e-08
0.186309814453125,2.67141648763131e-06,4.22065592436913e-08
0.19134521484375,2.69950704265972e-06,5.3178504215285e-08
0.196380615234375,2.72759112262327e-06,5.80534086267323e-08
0.201416015625,2.75567520258682e-06,6.81163013194297e-08
0.206451416015625,2.7837522850569e-06,7.39137305681019e-08
0.21148681640625,2.81182936752698e-06,8.12370387230248e-08
0.216522216796875,2.83989894612923e-06,8.21591593395188e-08
0.2215576171875,2.86796852473149e-06,9.25417291747628e-08
0.226593017578125,2.89603011019207e-06,1.00796061682933e-07
0.23162841796875,2.92409169565265e-06,1.02641702784852e-07
0.236663818359375,2.95214481680557e-06,1.04800983975684e-07
0.24169921875,2.98019793795849e-06,1.10317198760265e-07
0.246734619140625,3.00824214271209e-06,1.11569869006657e-07
0.25177001953125,3.0362863474657e-06,1.106863087843e-07
0.256805419921875,3.06432120372627e-06,1.09201745492478e-07
0.2618408203125,3.09235605998685e-06,1.07412006419405e-07
0.266876220703125,3.12038115653742e-06,1.05937202837581e-07
0.27191162109375,3.14840625308799e-06,1.02936520349508e-07
0.276947021484375,3.17642120042066e-06,9.90304597355938e-08
0.281982421875,3.20443614775332e-06,9.51243991216808e-08
0.287017822265625,3.23244057885331e-06,9.06185031779433e-08
0.29205322265625,3.26044500995329e-06,8.51970798904562e-08
0.297088623046875,3.2884385810333e-06,8.8636614279201e-08
0.3021240234375,3.3164321521133e-06,8.6582984605445e-08
0.307159423828125,3.34441454329658e-06,7.93525465471744e-08
0.31219482421875,3.37239693447985e-06,7.94463272389049e-08
0.317230224609375,3.4003678504307e-06,7.83308800380508e-08
0.322265625,3.42833876638155e-06,7.23326203371969e-08
0.327301025390625,3.45629793688211e-06,7.48910279616379e-08
0.33233642578125,3.48425710738267e-06,6.61579316798289e-08
0.337371826171875,3.51220428785469e-06,6.81179777703148e-08
0.3424072265625,3.5401514683267e-06,6.15331019858005e-08
0.347442626953125,3.56808644029748e-06,6.62519386087656e-08
0.35247802734375,3.59602141226827e-06,6.395173226298e-08
0.357513427734375,3.6239439837799e-06,6.34949810638517e-08
0.362548828125,3.65186655529153e-06,6.02916478334736e-08
0.367584228515625,3.67977656125251e-06,6.65613293724854e-08
0.37261962890625,3.7076865672135e-06,6.64223195052468e-08
0.377655029296875,3.73558386969239e-06,6.99581224951048e-08
0.3826904296875,3.76348117217129e-06,6.55593551724643e-08
0.387725830078125,3.79136566063163e-06,6.97183237433739e-08
0.39276123046875,3.81925014909197e-06,6.92996555955332e-08
0.397796630859375,3.84712174056831e-06,7.37766969316856e-08
0.40283203125,3.87499333204466e-06,7.39812773303371e-08
0.407867431640625,3.9028519712594e-06,7.35884584281039e-08
0.41290283203125,3.93071061047413e-06,7.258528796337e-08
0.417938232421875,3.95855626989493e-06,7.25106246363159e-08
0.4229736328125,3.98640192931574e-06,7.2741137090512e-08
0.428009033203125,4.01423460915379e-06,7.48156838149642e-08
0.43304443359375,4.04206728899183e-06,7.17022422581663e-08
0.438079833984375,4.06988701714082e-06,7.10431586404254e-08
0.443115234375,4.09770674528981e-06,7.4351360178936e-08
0.448150634765625,4.1255135772061e-06,7.46207001376515e-08
0.45318603515625,4.15332040912238e-06,7.21434580651186e-08
0.458221435546875,4.18111442764661e-06,7.24256114158951e-08
0.4632568359375,4.20890844617083e-06,7.3012940547921e-08
0.468292236328125,4.23668976129158e-06,7.39181488646678e-08
0.47332763671875,4.26447107641233e-06,7.29923024939144e-08
0.478363037109375,4.29223982497246e-06,6.99427922150373e-08
0.4833984375,4.32000857353259e-06,7.0860567092409e-08
0.488433837890625,4.34776491887891e-06,7.24010967460854e-08
0.49346923828125,4.37552126422524e-06,7.0889868587262e-08
0.498504638671875,4.40326539580256e-06,7.12219088849357e-08
0.5035400390625,4.43100952737989e-06,7.43005312138604e-08
0.508575439453125,4.4587416602703e-06,7.2203163948447e-08
0.51361083984375,4.48647379316072e-06,6.98006209017833e-08
0.518646240234375,4.51419416756927e-06,6.89357152432293e-08
0.523681640625,4.54191454197783e-06,7.17329189596738e-08
0.528717041015625,4.56962342266583e-06,6.66070460841687e-08
0.53375244140625,4.59733230335384e-06,6.39225794586626e-08
0.538787841796875,4.62502997902109e-06,6.18596694164136e-08
0.5438232421875,4.65272765468834e-06,6.59002749991647e-08
0.548858642578125,4.6804144373057e-06,6.84258947255483e-08
0.55389404296875,4.70810121992307e-06,6.14910652331834e-08
0.558929443359375,4.73577744401699e-06,6.15858372330117e-08
0.56396484375,4.76345366811091e-06,6.07650818890892e-08
0.569000244140625,4.79111969000143e-06,6.17855834360745e-08
0.57403564453125,4.81878571189194e-06,6.18905576393097e-08
0.579071044921875,4.84644190888596e-06,5.98691262702917e-08
0.5841064453125,4.87409810587998e-06,6.08994527137733e-08
0.589141845703125,4.90174487542164e-06,5.98029761408595e-08
0.59417724609375,4.9293916449633e-06,5.44340386304456e-08
0.599212646484375,4.95702940374332e-06,5.54828032879261e-08
0.604248046875,4.98466716252334e-06,5.10384038829062e-08
0.609283447265625,5.01229634554929e-06,4.99595138257067e-08
0.61431884765625,5.03992552857524e-06,5.19323815810069e-08
0.619354248046875,5.06754658820489e-06,5.4218548513857e-08
0.6243896484375,5.09516764783454e-06,4.7349442009208e-08
0.629425048828125,5.12278105277435e-06,4.96432636319021e-08
0.63446044921875,5.15039445771415e-06,3.75938235358453e-08
0.639495849609375,5.17800069198514e-06,4.63035072336151e-08
0.64453125,5.20560692625612e-06,3.60922924938828e-08
0.649566650390625,5.23320648812936e-06,4.32827696831411e-08
0.65460205078125,5.2608060500026e-06,3.49092820286482e-08
0.659637451171875,5.28839945090675e-06,4.24110959682501e-08
0.6646728515625,5.3159928518109e-06,4.10628122516015e-08
0.669708251953125,5.343580615214e-06,3.54477050985026e-08
0.67474365234375,5.37116837861709e-06,2.67808401329048e-08
0.679779052734375,5.39875103888522e-06,3.00209337710314e-08
0.684814453125,5.42633369915334e-06,2.77678633466575e-08
0.689849853515625,5.4539118003885e-06,1.91106605489998e-08
0.69488525390625,5.48148990162366e-06,2.14397858763413e-08
0.699920654296875,5.50906399648347e-06,2.34677417977801e-08
0.7049560546875,5.53663809134328e-06,1.23731391254695e-08
0.709991455078125,5.56420873984498e-06,4.63891640501564e-09
0.71502685546875,5.59177938834669e-06,1.09427796220632e-08
0.720062255859375,5.61934715665805e-06,1.57236441231987e-08
0.72509765625,5.64691492496941e-06,1.65372234680854e-08
0.730133056640625,5.67448038418915e-06,5.14608065460107e-09
0.73516845703125,5.70204584340888e-06,1.57275940911158e-08
0.740203857421875,5.72960956833916e-06,8.30547072333578e-09
0.7452392578125,5.75717329326944e-06,5.76615985555724e-09
0.750274658203125,5.78473586118318e-06,3.53318178557311e-09
0.75531005859375,5.81229842909691e-06,1.60537949684098e-09
0.760345458984375,5.83986041850237e-06,-1.6668502370059e-11
0.765380859375,5.86742240790783e-06,-4.99565009532938e-09
0.770416259765625,5.89498439731329e-06,-6.92287387578988e-09
0.77545166015625,5.92254638671875e-06,-1.6784667968749e-08
0.780487060546875,5.95011393229166e-06,-1.07828776041653e-08
0.7855224609375,5.97768147786458e-06,-1.05794270833315e-08
0.790557861328125,6.0052490234375e-06,-1.49536132812489e-08
0.79559326171875,6.03281656901041e-06,-7.7311197916648e-09
0.800628662109375,6.06038411458333e-06,-1.21053059895813e-08
0.8056640625,6.08795166015625e-06,-1.19018554687484e-08
0.810699462890625,6.11797332763672e-06,-1.81198120117172e-08
0.81573486328125,6.14799499511719e-06,-1.12152099609364e-08
0.820770263671875,6.17801666259766e-06,-1.19400024414057e-08
0.8258056640625,6.20803833007812e-06,-1.17492675781249e-08
0.830841064453125,6.23870849609375e-06,-1.89208984374994e-08
0.83587646484375,6.26937866210937e-06,-1.32751464843747e-08
0.840911865234375,6.30142211914062e-06,-1.87683105468743e-08
0.845947265625,6.33346557617187e-06,-1.72424316406245e-08
0.850982666015625,6.36550903320312e-06,-1.08337402343748e-08
0.85601806640625,6.39755249023437e-06,-1.44958496093743e-08
0.861053466796875,6.43524169921875e-06,-2.31933593749986e-08
0.8660888671875,6.47293090820312e-06,-1.66320800781238e-08
0.871124267578125,6.51069641113281e-06,-2.11334228515603e-08
0.87615966796875,6.5484619140625e-06,-1.77001953124982e-08
0.881195068359375,6.58663007155129e-06,-2.04679621762952e-08
0.88623046875,6.62479822904009e-06,-1.46908071650921e-08
0.891265869140625,6.66295393207193e-06,-5.84943988442722e-09
0.89630126953125,6.70110963510376e-06,-2.50123666626279e-09
0.901336669921875,6.73924669782406e-06,5.44324358218717e-09
0.9063720703125,6.77738376054436e-06,1.39980753931377e-08
0.911407470703125,6.81549603821411e-06,2.80708563171367e-08
0.91644287109375,6.85360831588387e-06,4.67212739598843e-08
0.921478271484375,6.8916897148387e-06,7.02853828175491e-08
0.926513671875,6.92977111379354e-06,9.41546674564625e-08
0.931549072265625,6.96781560121526e-06,1.18060863628486e-07
0.93658447265625,7.00586008863699e-06,1.58751727769258e-07
0.941619873046875,7.04386170210983e-06,1.95213004921418e-07
0.9466552734375,7.08186331558267e-06,2.38693325042329e-07
0.951690673828125,7.11981617240792e-06,2.7917064399833e-07
0.95672607421875,7.15776902923317e-06,3.11103041079332e-07
0.961761474609375,7.19566733547757e-06,3.63536766084935e-07
0.966796875,7.23356564172196e-06,4.15970491090538e-07
0.971832275390625,7.27140370097675e-06,4.86469834179502e-07
0.97686767578125,7.30924176023153e-06,5.5025531008097e-07
0.981903076171875,7.34701398206095e-06,6.21430842157799e-07
0.9869384765625,7.38478620389037e-06,6.93216725797129e-07
0.991973876953125,7.42248711195035e-06,7.77586130237156e-07
0.99700927734375,7.46018802001032e-06,8.70500456552179e-07
1.00204467773438,7.49781225981988e-06,9.65322505805121e-07
1.007080078125,7.53543649962944e-06,1.04946340271431e-06
1.01211547851563,7.57297884597962e-06,1.14925015792663e-06
1.01715087890625,7.6105211923298e-06,1.24110234282645e-06
1.02218627929688,7.64797655631676e-06,1.33700879524574e-06
1.0272216796875,7.68543192030372e-06,1.42772725938378e-06
1.03225708007813,7.72279535597487e-06,1.52586187058763e-06
1.03729248046875,7.76015879164603e-06,1.62521718491647e-06
1.04232788085938,7.79742550225024e-06,1.72100711493726e-06
1.04736328125,7.83469221285446e-06,1.80886247464555e-06
1.05239868164063,7.87185755668925e-06,1.88766392768575e-06
1.05743408203125,7.90902290052405e-06,1.96951713853845e-06
1.06246948242188,7.94608239637506e-06,2.04232092393744e-06
1.0675048828125,7.98314189222607e-06,2.11207295152393e-06
1.07254028320313,8.02009122439584e-06,2.17583162716666e-06
1.07757568359375,8.05704055656562e-06,2.22738327155938e-06
1.08261108398438,8.09387557949102e-06,2.27599746738398e-06
1.087646484375,8.13071060241643e-06,2.31850814758357e-06
1.09268188476563,8.1674273448757e-06,2.3580853504368e-06
1.09771728515625,8.20414408733497e-06,2.38240376422753e-06
1.10275268554688,8.24073875624735e-06,2.40379249375265e-06
1.1077880859375,8.27733342515973e-06,2.40992243421527e-06
1.11282348632813,8.31380240898244e-06,2.40702278633006e-06
1.11785888671875,8.35027139280515e-06,2.41938192750735e-06
1.12289428710938,8.38661126453395e-06,2.40440436046605e-06
1.1279296875,8.42295113626275e-06,2.40163382467476e-06
1.13296508789063,8.45915865604405e-06,2.38373685176845e-06
1.13800048828125,8.49536617582535e-06,2.36583987886216e-06
1.14303588867188,8.53143829318911e-06,2.34197479274839e-06
1.1480712890625,8.56751041055288e-06,2.31810970663462e-06
1.15310668945313,8.60344426627688e-06,2.28217585091061e-06
1.15814208984375,8.63937812200089e-06,2.25234551081161e-06
1.16317749023438,8.67517104961805e-06,2.21655258319445e-06
1.168212890625,8.71096397723521e-06,2.18381141338979e-06
1.17324829101563,8.74661350419673e-06,2.14816188642828e-06
1.17828369140625,8.78226303115824e-06,2.10335708602926e-06
1.18331909179688,8.81776687966609e-06,2.06785323752141e-06
1.1883544921875,8.85327072817394e-06,2.02929763120106e-06
1.19338989257813,8.888626815697e-06,1.9908897858655e-06
1.19842529296875,8.92398290322006e-06,1.94637842490494e-06
1.20346069335938,8.95918934270874e-06,1.90201671197876e-06
1.20849609375,8.99439578219742e-06,1.85155148342758e-06
1.21353149414063,9.02945088201203e-06,1.79513407892547e-06
1.21856689453125,9.06450598182665e-06,1.74482019004835e-06
1.22360229492188,9.09940824539509e-06,1.68245210616741e-06
1.2286376953125,9.13431050896353e-06,1.62313578009897e-06
1.23367309570313,9.16905863418386e-06,1.56092183456614e-06
1.23870849609375,9.20380675940418e-06,1.50175964684582e-06
1.24374389648438,9.23839963780784e-06,1.43664919031716e-06
1.248779296875,9.27299251621151e-06,1.368486975976e-06
1.25381469726563,9.30742923190268e-06,1.29742916653482e-06
1.25885009765625,9.34186594759385e-06,1.23247487271864e-06
1.26388549804688,9.37614577598018e-06,1.16767746620733e-06
1.2689208984375,9.4104256043665e-06,1.09982830188351e-06
1.27395629882813,9.44454801069605e-06,1.03518831742895e-06
1.27899169921875,9.47867041702561e-06,9.64444817349393e-07
1.28402709960938,9.51263505474461e-06,9.1522139056789e-07
1.2890625,9.54659969246361e-06,8.56842690348889e-07
1.29409790039063,9.58040640140857e-06,8.04725434528928e-07
1.29913330078125,9.61421311035353e-06,7.3734938964647e-07
1.30416870117188,9.64786191479108e-06,6.97597069583921e-07
1.3092041015625,9.68151071922863e-06,6.33430687021371e-07
1.31423950195313,9.71500182575542e-06,5.90784307057079e-07
1.31927490234375,9.74849293228221e-06,5.42034411467786e-07
1.32431030273438,9.7818267275965e-06,4.99545342715997e-07
1.329345703125,9.81516052291079e-06,4.5400451615171e-07
1.33438110351563,9.84833757146644e-06,4.11672194158564e-07
1.33941650390625,9.88151462002208e-06,3.60184598727917e-07
1.34445190429688,9.91453566157488e-06,3.27163557175125e-07
1.3494873046875,9.94755670312767e-06,2.97194273434832e-07
1.35452270507813,9.98042265018284e-06,2.6432832637966e-07
1.35955810546875,1.0013288597238e-05,2.3451413713699e-07
1.36459350585938,1.0046000532407e-05,2.04853959780537e-07
1.36962890625,1.00787124675759e-05,1.69090266799081e-07
1.37466430664063,1.01112716408492e-05,1.51789882588276e-07
1.37969970703125,1.01438308141225e-05,1.46696529627471e-07
1.38473510742188,1.01762386400652e-05,1.44806281809778e-07
1.3897705078125,1.02086464660079e-05,1.39864276179583e-07
1.39480590820313,1.02409045208823e-05,1.56434346305157e-07
1.39984130859375,1.02731625757568e-05,1.88263205493229e-07
1.40487670898438,1.03052725945772e-05,2.32447131985304e-07
1.409912109375,1.03373826133976e-05,2.94941605352377e-07
1.41494750976563,1.036934648692e-05,3.72841013079954e-07
1.41998291015625,1.04013103604425e-05,4.6294745205753e-07
1.42501831054688,1.04331301320922e-05,5.71508539782752e-07
1.4300537109375,1.0464949903742e-05,6.92276658757972e-07
1.43508911132813,1.04966277664811e-05,8.16238444456358e-07
1.44012451171875,1.05283056292203e-05,9.73769566092245e-07
1.44515991210938,1.05598439223553e-05,1.11923322608217e-06
1.4501953125,1.05913822154904e-05,1.26164512825959e-06
1.45523071289063,1.06227834214221e-05,1.38283181295294e-06
1.46026611328125,1.06541846273537e-05,1.51012201327128e-06
1.46530151367188,1.06854513682671e-05,1.61313261610788e-06
1.4703369140625,1.07167181091805e-05,1.73445376581947e-06
1.47537231445313,1.07478531436767e-05,1.86201013757332e-06
1.48040771484375,1.07789881781728e-05,2.02313584526466e-06
1.48544311523438,1.08099943978396e-05,2.1996491568479e-06
1.490478515625,1.08410006175064e-05,2.39447301530614e-06
1.49551391601563,1.0871881043428e-05,2.6077332143845e-06
1.50054931640625,1.09027614693496e-05,2.86676978065036e-06
1.50558471679688,1.09335192485534e-05,3.15949832957163e-06
1.5106201171875,1.09642770277571e-05,3.4796926988054e-06
1.51565551757813,1.0994915429595e-05,3.81831699228005e-06
1.52069091796875,1.10255538314328e-05,4.14778601231719e-06
1.52572631835938,1.10560762438972e-05,4.48042277954035e-06
1.53076171875,1.10865986563615e-05,4.80695603113851e-06
1.53579711914063,1.11170085823323e-05,5.12139473798016e-06
1.54083251953125,1.11474185083032e-05,5.37174653075931e-06
1.54586791992188,1.11777195617258e-05,5.60389664921171e-06
1.5509033203125,1.12080206151484e-05,5.79027040047661e-06
1.55593872070313,1.12382165171394e-05,5.92486942036056e-06
1.56097412109375,1.12684124191305e-05,6.01369207305701e-06
1.56600952148438,1.12985069940118e-05,6.05073617005072e-06
1.571044921875,1.13286015688931e-05,6.03590038423192e-06
1.57608032226563,1.13585987401515e-05,5.97538563484853e-06
1.58111572265625,1.13885959114099e-05,5.87214627609012e-06
1.58615112304688,1.1418499697583e-05,5.69270635710454e-06
1.5911865234375,1.1448403483756e-05,5.49495589124396e-06
1.59622192382813,1.14782179942431e-05,5.24541481825692e-06
1.60125732421875,1.15080325047301e-05,4.95009737808238e-06
1.60629272460938,1.15377619355285e-05,4.61519216603401e-06
1.611328125,1.15674913663269e-05,4.22230355554813e-06
1.61636352539063,1.15971399956944e-05,3.82339223086806e-06
1.62139892578125,1.1626788625062e-05,3.37260102337548e-06
1.62643432617188,1.16563608091065e-05,2.95240383933097e-06
1.6314697265625,1.1685932993151e-05,2.51084435059895e-06
1.63650512695313,1.1715433161348e-05,2.09682269802703e-06
1.64154052734375,1.17449333295449e-05,1.70721510795511e-06
1.64657592773438,1.17743659801858e-05,1.37260667606417e-06
1.651611328125,1.18037986308268e-05,1.09292988479822e-06
1.65664672851563,1.18331683264009e-05,8.83506478286568e-07
1.66168212890625,1.18625380219751e-05,7.22911196774918e-07
1.66671752929688,1.18918493844867e-05,6.38668193638346e-07
1.6717529296875,1.19211607469982e-05,6.00201557689278e-07
