Potential applied (V),Fitted WE(1).δ.Current,Corrected WE(1).δ.Current (A)
0,7.91931152343758E-07,-2.288818359375E-08
0.005035400390625,7.75909423828134E-07,3.89099121093744E-08
0.01007080078125,7.5988769531251E-07,9.15527343749857E-09
0.015106201171875,7.5271606445313E-07,-1.98364257811936E-09
0.0201416015625,7.45544433593751E-07,-9.1552734374848E-10
0.025177001953125,7.46612548828125E-07,-1.52587890625576E-10
0.03021240234375,7.47680664062499E-07,-2.13623046875023E-09
0.035247802734375,7.5589370727539E-07,-6.07681274414067E-09
0.040283203125,7.64106750488281E-07,-2.69317626953098E-09
0.045318603515625,7.72319793701172E-07,-3.58200073242143E-09
0.05035400390625,7.80532836914063E-07,-5.90515136718737E-09
0.055389404296875,7.91976928710938E-07,-5.53894042968753E-09
0.0604248046875,8.03421020507813E-07,-7.55310058593743E-09
0.065460205078125,8.16555023193359E-07,-5.58090209960924E-09
0.07049560546875,8.29689025878906E-07,-2.90679931640619E-09
0.075531005859375,8.42823028564453E-07,-6.58035278320293E-09
0.08056640625,8.5595703125E-07,-7.69042968749975E-09
0.085601806640625,8.71115112304687E-07,-7.4676513671873E-09
0.09063720703125,8.86273193359375E-07,-4.31518554687489E-09
0.095672607421875,9.01431274414062E-07,-3.60412597656248E-09
0.1007080078125,9.1658935546875E-07,-6.55517578125003E-09
0.105743408203125,9.31747436523437E-07,-8.59069824218752E-09
0.11077880859375,9.46905517578125E-07,-4.82788085937492E-09
0.115814208984375,9.62063598632812E-07,-2.59094238281247E-09
0.120849609375,9.772216796875E-07,-3.1005859374998E-09
0.125885009765625,9.92379760742187E-07,-4.52575683593762E-09
0.13092041015625,1.00753784179688E-06,-8.69750976562523E-09
0.135955810546875,1.02413177490234E-06,-7.89642333984381E-09
0.1409912109375,1.04072570800781E-06,-7.40051269531228E-09
0.146026611328125,1.05731964111328E-06,-8.12530517578133E-09
0.15106201171875,1.07391357421875E-06,-6.10351562500017E-09
0.156097412109375,1.09302520751953E-06,-1.30081176757811E-08
0.1611328125,1.11213684082031E-06,-8.01086425781225E-09
0.166168212890625,1.13124847412109E-06,-8.50677490234336E-09
0.17120361328125,1.15036010742187E-06,-9.00268554687447E-09
0.176239013671875,1.1712900797526E-06,-1.19272867838537E-08
0.1812744140625,1.19222005208333E-06,-1.2105305989583E-08
0.186309814453125,1.21315002441406E-06,-8.31604003906192E-09
0.19134521484375,1.23407999674479E-06,-1.12406412760412E-08
0.196380615234375,1.25500996907552E-06,-7.4513753255201E-09
0.201416015625,1.27593994140625E-06,-1.06811523437492E-08
0.206451416015625,1.30027770996094E-06,-1.36566162109368E-08
0.21148681640625,1.32461547851562E-06,-1.02233886718742E-08
0.216522216796875,1.34895324707031E-06,-1.25885009765617E-08
0.2215576171875,1.373291015625E-06,-1.00708007812491E-08
0.226593017578125,1.3995361328125E-06,-1.61743164062492E-08
0.23162841796875,1.42578125E-06,-1.52587890624992E-08
0.236663818359375,1.45221710205078E-06,-1.11770629882804E-08
0.24169921875,1.47865295410156E-06,-8.92639160156169E-09
0.246734619140625,1.50508880615234E-06,-1.18637084960927E-08
0.25177001953125,1.53152465820312E-06,-1.48010253906239E-08
0.256805419921875,1.56059265136719E-06,-1.42669677734367E-08
0.2618408203125,1.58966064453125E-06,-1.28173828124991E-08
0.266876220703125,1.61872863769531E-06,-8.6212158203118E-09
0.27191162109375,1.64779663085937E-06,-1.29699707031242E-08
0.276947021484375,1.67747497558594E-06,-1.67083740234368E-08
0.281982421875,1.7071533203125E-06,-1.55639648437493E-08
0.287017822265625,1.73698425292969E-06,-1.42669677734372E-08
0.29205322265625,1.76681518554687E-06,-1.44958496093747E-08
0.297088623046875,1.79763793945312E-06,-1.63269042968744E-08
0.3021240234375,1.82846069335937E-06,-1.57165527343746E-08
0.307159423828125,1.8597412109375E-06,-1.55639648437495E-08
0.31219482421875,1.89102172851562E-06,-1.48010253906246E-08
0.317230224609375,1.92230224609375E-06,-1.28173828124997E-08
0.322265625,1.95358276367187E-06,-1.41906738281244E-08
0.327301025390625,1.98486328125E-06,-1.34277343749995E-08
0.33233642578125,2.01614379882812E-06,-1.81579589843741E-08
0.337371826171875,2.04837799072266E-06,-1.40762329101553E-08
0.3424072265625,2.08061218261719E-06,-1.54876708984369E-08
0.347442626953125,2.11284637451172E-06,-1.50680541992184E-08
0.35247802734375,2.14508056640625E-06,-1.64794921874995E-08
0.357513427734375,2.17941284179687E-06,-1.78527832031242E-08
0.362548828125,2.2137451171875E-06,-1.70898437499989E-08
0.367584228515625,2.24807739257812E-06,-1.57165527343742E-08
0.37261962890625,2.28240966796875E-06,-1.6784667968749E-08
0.377655029296875,2.31674194335937E-06,-1.69372558593742E-08
0.3826904296875,2.35107421875E-06,-1.89208984374994E-08
0.387725830078125,2.38582611083984E-06,-1.58309936523429E-08
0.39276123046875,2.42057800292969E-06,-1.45721435546873E-08
0.397796630859375,2.45532989501953E-06,-1.91116333007807E-08
0.40283203125,2.49008178710937E-06,-1.99890136718742E-08
0.407867431640625,2.52483367919922E-06,-1.29318237304679E-08
0.41290283203125,2.55958557128906E-06,-1.16729736328115E-08
0.417938232421875,2.5943374633789E-06,-1.40762329101549E-08
0.4229736328125,2.62908935546875E-06,-1.67846679687486E-08
0.428009033203125,2.66399147649808E-06,-1.81174530605751E-08
0.43304443359375,2.6988935975274E-06,-1.54829529961519E-08
0.438079833984375,2.73378314757849E-06,-1.16151788284861E-08
0.443115234375,2.76867269762957E-06,-1.14095140358206E-08
0.448150634765625,2.80354341630522E-06,-1.24057209927176E-08
0.45318603515625,2.83841413498086E-06,-1.09605216996147E-08
0.458221435546875,2.8732597871949E-06,-8.26955281990171E-09
0.4632568359375,2.90810543940894E-06,-4.05270503393844E-09
0.468292236328125,2.94291982198124E-06,-4.38222432498855E-09
0.47332763671875,2.97773420455354E-06,-7.44458459788929E-10
0.478363037109375,3.01251115295635E-06,-4.39347717509978E-09
0.4833984375,3.04728810135916E-06,1.72312910958982E-09
0.488433837890625,3.08202149663263E-06,5.74705805486955E-09
0.49346923828125,3.1167548919061E-06,9.16063543764952E-09
0.498504638671875,3.15143866775803E-06,6.21514083572369E-09
0.5035400390625,3.18612244360995E-06,1.02886892025481E-08
0.508575439453125,3.22075059371163E-06,1.68592695696188E-08
0.51361083984375,3.25537874381331E-06,1.885221321794E-08
0.518646240234375,3.28994532930009E-06,1.72446121061562E-08
0.523681640625,3.32451191478688E-06,2.54026359943728E-08
0.528717041015625,3.35901107196857E-06,2.53883420939343E-08
0.53375244140625,3.39351022915025E-06,3.51396731934963E-08
0.538787841796875,3.42793617743294E-06,3.70296428795645E-08
0.5438232421875,3.46236212571562E-06,4.16661945968829E-08
0.548858642578125,3.49670917573294E-06,4.11936562983072E-08
0.55389404296875,3.53105622575027E-06,4.80453367497321E-08
0.558929443359375,3.56531878769853E-06,5.4676329488974E-08
0.56396484375,3.59958134964678E-06,6.25280253532154E-08
0.569000244140625,3.63375394181455E-06,6.43661753729532E-08
0.57403564453125,3.66792653398231E-06,6.98664347676922E-08
0.579071044921875,3.70200379146184E-06,7.17999194756638E-08
0.5841064453125,3.73608104894136E-06,8.13627987148853E-08
0.589141845703125,3.77005773250555E-06,8.73641424944448E-08
0.59417724609375,3.80403441606975E-06,9.09240800240044E-08
0.599212646484375,3.83790542119502E-06,9.18431139612262E-08
0.604248046875,3.8717764263203E-06,1.00391542429698E-07
0.609283447265625,3.90553679233272E-06,1.0996613735478E-07
0.61431884765625,3.93929715834514E-06,1.17709677592361E-07
0.619354248046875,3.97294207766394E-06,1.19770324679805E-07
0.6243896484375,4.00658699698275E-06,1.22441323329748E-07
0.629425048828125,4.04011182443292E-06,1.33777335723327E-07
0.63446044921875,4.07363665188309E-06,1.36263250460655E-07
0.639495849609375,4.10703691404577E-06,1.48029003922983E-07
0.64453125,4.14043717620844E-06,1.4911360504156E-07
0.649566650390625,4.1737085807759E-06,1.55515052036595E-07
0.65460205078125,4.20697998534337E-06,1.6100097168788E-07
0.659637451171875,4.24011843044324E-06,1.75775124244257E-07
0.6646728515625,4.27325687554312E-06,1.80783651800634E-07
0.669708251953125,4.30625845899458E-06,1.85929041005422E-07
0.67474365234375,4.33926004244604E-06,1.8558126614771E-07
0.679779052734375,4.37212107090955E-06,2.02769065809198E-07
0.684814453125,4.40498209937306E-06,2.02256670158186E-07
0.689849853515625,4.43769909735382E-06,2.15926390927429E-07
0.69488525390625,4.47041609533458E-06,2.13116619509173E-07
0.699920654296875,4.50298581399909E-06,2.25407740688411E-07
0.7049560546875,4.5355555326636E-06,2.34647104055149E-07
0.709991455078125,4.56797495842822E-06,2.47393693915528E-07
0.71502685546875,4.60039438419284E-06,2.60140283775907E-07
0.720062255859375,4.6326607470428E-06,2.64495014675949E-07
0.72509765625,4.66492710989276E-06,2.81056776825991E-07
0.730133056640625,4.69703789139026E-06,2.84651561734736E-07
0.73516845703125,4.72914867288777E-06,3.15406991174731E-07
0.740203857421875,4.76110161382808E-06,3.2831489007817E-07
0.7452392578125,4.79305455476839E-06,3.40917613200358E-07
0.750274658203125,4.82484766244332E-06,3.5215429068168E-07
0.75531005859375,4.85664077011825E-06,3.77734229881753E-07
0.760345458984375,4.88827232514743E-06,4.05306776415068E-07
0.765380859375,4.91990388017662E-06,4.31353444042134E-07
0.770416259765625,4.95137244286801E-06,4.58783807131986E-07
0.77545166015625,4.98284100555941E-06,4.80110654596839E-07
0.780487060546875,5.01414542176181E-06,5.35170984488187E-07
0.7855224609375,5.04544983796422E-06,5.84432974535783E-07
0.790557861328125,5.0765892443762E-06,6.37827259530051E-07
0.79559326171875,5.10772865078818E-06,6.97630235930569E-07
0.800628662109375,5.13870247968969E-06,7.5302115312281E-07
0.8056640625,5.1696763085912E-06,8.34657187502549E-07
0.810699462890625,5.20048429196602E-06,9.17679770533979E-07
0.81573486328125,5.23129227534084E-06,1.01626631840916E-06
0.820770263671875,5.26193444836033E-06,1.12020666492092E-06
0.8258056640625,5.29257662137983E-06,1.24215238252642E-06
0.830841064453125,5.32305332522077E-06,1.38532069821673E-06
0.83587646484375,5.35353002906171E-06,1.53489770531329E-06
0.840911865234375,5.38384191303351E-06,1.68250330181024E-06
0.845947265625,5.41415379700532E-06,1.85299708190093E-06
0.850982666015625,5.44430181996463E-06,2.02487542612912E-06
0.85601806640625,5.47444984292395E-06,2.2382576766073E-06
0.861053466796875,5.50443527395733E-06,2.44173171823018E-06
0.8660888671875,5.53442070499071E-06,2.64612128719679E-06
0.871124267578125,5.56424512334905E-06,2.8723393493072E-06
0.87615966796875,5.59406954170739E-06,3.09214872001136E-06
0.881195068359375,5.62373483597865E-06,3.33073293745885E-06
0.88623046875,5.65340013024992E-06,3.55711012365633E-06
0.891265869140625,5.6829084967598E-06,3.7958512688652E-06
0.89630126953125,5.71241686326968E-06,4.00438001173032E-06
0.901336669921875,5.74177080370291E-06,4.22527021192209E-06
0.9063720703125,5.77112474413613E-06,4.43090162305137E-06
0.911407470703125,5.80032706237419E-06,4.63363289856331E-06
0.91644287109375,5.82952938061225E-06,4.81195011157525E-06
0.921478271484375,5.85858317878661E-06,4.98736408683839E-06
0.926513671875,5.88763697696097E-06,5.13836399960153E-06
0.931549072265625,5.91654565072374E-06,5.27119848990126E-06
0.93658447265625,5.94545432448651E-06,5.38267067551349E-06
0.941619873046875,5.97422155750393E-06,5.46071496593358E-06
0.9466552734375,6.00298879052135E-06,5.51739695166615E-06
0.951690673828125,6.0316185481984E-06,5.5498023502391E-06
0.95672607421875,6.06024830587546E-06,5.53643138162454E-06
0.961761474609375,6.08874482832302E-06,5.51098661698948E-06
0.966796875,6.11724135077057E-06,5.43976548516693E-06
0.971832275390625,6.14560914502952E-06,5.35951780809548E-06
0.97686767578125,6.17397693928847E-06,5.24570079508653E-06
0.981903076171875,6.20222077082825E-06,5.09843840885925E-06
0.9869384765625,6.23046460236804E-06,4.92065844450697E-06
0.991973876953125,6.25858948587981E-06,4.71247985005769E-06
0.99700927734375,6.28671436939159E-06,4.50124949779591E-06
1.00204467773438,6.31472555889906E-06,4.25961526141345E-06
1.007080078125,6.34273674840653E-06,4.00272223596848E-06
1.01211547851563,6.3706397267202E-06,3.7428856639048E-06
1.01715087890625,6.39854270503387E-06,3.46779030277863E-06
1.02218627929688,6.42634317257696E-06,3.19890096804804E-06
1.0272216796875,6.45414364012006E-06,2.93611514894244E-06
1.03225708007813,6.48184750315684E-06,2.68563296559316E-06
1.03729248046875,6.50955136619362E-06,2.44125429786888E-06
1.04232788085938,6.53716472449313E-06,2.20612140831937E-06
1.04736328125,6.56477808279264E-06,1.98929906564486E-06
1.05239868164063,6.59230721676304E-06,1.78476797854946E-06
1.05743408203125,6.61983635073344E-06,1.59854743832906E-06
1.06246948242188,6.64728770806416E-06,1.42461170599834E-06
1.0675048828125,6.67473906539488E-06,1.26288300491762E-06
1.07254028320313,6.7021192472456E-06,1.1225877840044E-06
1.07757568359375,6.72949942909631E-06,9.91447836528687E-07
1.08261108398438,6.75681517587349E-06,8.78682871001512E-07
1.087646484375,6.78413092265067E-06,7.72021421099336E-07
1.09268188476563,6.81138909941392E-06,6.80676330273584E-07
1.09771728515625,6.83864727617717E-06,5.89331239447831E-07
1.10275268554688,6.865854857719E-06,5.16347290718496E-07
1.1077880859375,6.89306243926084E-06,4.49466857614166E-07
1.11282348632813,6.92022649490448E-06,3.79578192595521E-07
1.11785888671875,6.94739055054812E-06,3.21896558826878E-07
1.12289428710938,6.97451822870917E-06,2.61199544728332E-07
1.1279296875,7.00164590687021E-06,2.27968350942287E-07
1.13296508789063,7.02874441942851E-06,1.85611049321489E-07
1.13800048828125,7.05584293198681E-06,1.43253747700689E-07
1.14303588867188,7.08291953851566E-06,1.03970109921843E-07
1.1480712890625,7.10999614504451E-06,8.60487768304942E-08
1.15310668945313,7.13705813694459E-06,5.59350271179085E-08
1.15814208984375,7.16412012884468E-06,3.49765508428219E-08
1.16317749023438,7.19117481343038E-06,1.40253818821177E-08
1.168212890625,7.21822949801609E-06,2.22948635891261E-09
1.17324829101563,7.24528418260179E-06,-6.51465135179285E-09
1.17828369140625,7.2723388671875E-06,-9.15527343749645E-09
1.18331909179688,7.2998046875E-06,-1.83105468749971E-08
1.1883544921875,7.3272705078125E-06,-1.2207031249997E-08
1.19338989257813,7.3577880859375E-06,-1.83105468749963E-08
1.19842529296875,7.3883056640625E-06,-1.83105468749971E-08
1.20346069335938,7.41958618164062E-06,-1.29699707031227E-08
1.20849609375,7.45086669921875E-06,-1.37329101562476E-08
1.21353149414063,7.48519897460937E-06,-2.05993652343719E-08
1.21856689453125,7.51953125E-06,-2.13623046874968E-08
1.22360229492188,7.55673168362526E-06,-1.58381289377639E-08
1.2286376953125,7.59393211725053E-06,-1.64174688130303E-08
1.23367309570313,7.63112367077985E-06,-1.69879285923465E-08
1.23870849609375,7.66831522430916E-06,-1.14548727466625E-08
1.24374389648438,7.70549353491613E-06,-8.96033179113007E-09
1.248779296875,7.74267184552309E-06,8.79299822690576E-09
1.25381469726563,7.77983262699038E-06,2.6563857384616E-08
1.25885009765625,7.81699340845768E-06,5.04382321673256E-08
1.26388549804688,7.85413246956604E-06,8.3489600746461E-08
1.2689208984375,7.8912715306744E-06,1.25696242763099E-07
1.27395629882813,7.92838479313708E-06,1.83187472487924E-07
1.27899169921875,7.96549805559975E-06,2.49833975650248E-07
1.28402709960938,8.00258157146955E-06,3.43976045717946E-07
1.2890625,8.03966508733935E-06,4.44221631410647E-07
1.29409790039063,8.07671505581713E-06,5.65863069182872E-07
1.29913330078125,8.1137650242949E-06,7.08866811642599E-07
1.30416870117188,8.15077780786977E-06,8.9768410619273E-07
1.3092041015625,8.18779059144464E-06,1.08039788511786E-06
1.31423950195313,8.22476273129844E-06,1.30587691713906E-06
1.31927490234375,8.26173487115225E-06,1.55271825384776E-06
1.32431030273438,8.29866310176293E-06,1.83622459354957E-06
1.329345703125,8.33559133237362E-06,2.16245554262638E-06
1.33438110351563,8.37247259525495E-06,2.50094049068255E-06
1.33941650390625,8.40935385813629E-06,2.87909829030121E-06
1.34445190429688,8.44618531465421E-06,3.31223753690829E-06
1.3494873046875,8.48301677117213E-06,3.78504963507787E-06
1.35452270507813,8.51979581438138E-06,4.28232820905611E-06
1.35955810546875,8.55657485759064E-06,4.80707260334686E-06
1.36459350585938,8.59329912303895E-06,5.33187177539855E-06
1.36962890625,8.63002338848727E-06,5.87192973651273E-06
1.37466430664063,8.66669076393831E-06,6.39983755637419E-06
1.37969970703125,8.70335813938935E-06,6.91553834498565E-06
1.38473510742188,8.73996677341996E-06,7.38246975001754E-06
1.3897705078125,8.77657540745058E-06,7.79141775661192E-06
1.39480590820313,8.8131237168825E-06,8.1607532362425E-06
1.39984130859375,8.84967202631442E-06,8.46600180181058E-06
1.40487670898438,8.88615870244546E-06,8.71332860224203E-06
1.409912109375,8.92264537857651E-06,8.88741321517349E-06
1.41494750976563,8.95906939218155E-06,9.00052533438095E-06
1.41998291015625,8.99549340578659E-06,9.05260229733841E-06
1.42501831054688,9.03185401086391E-06,9.03760399694859E-06
1.4300537109375,9.06821461594123E-06,8.95546702468377E-06
1.43508911132813,9.10451135218578E-06,8.78184118687672E-06
1.44012451171875,9.14080808843032E-06,8.56854249750718E-06
1.44515991210938,9.17704078242088E-06,8.26985863164162E-06
1.4501953125,9.21327347641144E-06,7.89488082046356E-06
1.45523071289063,9.24944224150519E-06,7.43451771943231E-06
1.46026611328125,9.28561100659894E-06,6.92837825121356E-06
1.46530151367188,9.32171624153261E-06,6.33990485221739E-06
1.4703369140625,9.35782147646628E-06,5.73006914853372E-06
1.47537231445313,9.39386386266964E-06,5.09283047326786E-06
1.48040771484375,9.429906248873E-06,4.473902344877E-06
1.48544311523438,9.46588674650647E-06,3.86419137849353E-06
1.490478515625,9.50186724413993E-06,3.32467084179757E-06
1.49551391601563,9.53778708687457E-06,2.85845314750043E-06
1.50054931640625,9.57370692960921E-06,2.49294346101579E-06
1.50558471679688,9.60956761817335E-06,2.20683863182666E-06
1.5106201171875,9.64542830673748E-06,2.01533829482502E-06
1.51565551757813,9.68123160126054E-06,1.92460335967696E-06
1.52069091796875,9.71703489578361E-06,1.91016236984139E-06
1.52572631835938,9.75278280697372E-06,1.98427773990128E-06
1.53076171875,9.78853071816384E-06,2.12858353964866E-06
1.53579711914063,9.82422549736146E-06,2.32787411201354E-06
1.54083251953125,9.85992027655909E-06,2.56683753594091E-06
1.54586791992188,9.89556440471481E-06,2.84857622028519E-06
1.5509033203125,9.93120853287053E-06,3.13031490462947E-06
1.55593872070313,9.96680470850036E-06,3.40599802587464E-06
1.56097412109375,1.00024008841302E-05,3.65726708461981E-06
1.56600952148438,1.0037952010307E-05,3.87501185688053E-06
1.571044921875,1.00735031364838E-05,4.06223905101625E-06
1.57608032226563,1.0109012306928E-05,4.20678359150953E-06
1.58111572265625,1.01445214773722E-05,4.30860352262781E-06
1.58615112304688,1.01799919617101E-05,4.33721995235244E-06
1.5911865234375,1.02154624460479E-05,4.34752583520207E-06
1.59622192382813,1.02508976743087E-05,4.31514236475381E-06
1.60125732421875,1.02863329025695E-05,4.24003428493055E-06
1.60629272460938,1.03217364489975E-05,4.12833679319001E-06
1.611328125,1.03571399954255E-05,3.95560414519948E-06
1.61636352539063,1.03925155616862E-05,3.77374420393877E-06
1.62139892578125,1.04278911279469E-05,3.53390086424056E-06
1.62643432617188,1.04632425258082E-05,3.28797817731681E-06
1.6314697265625,1.04985939236694E-05,2.99933088101806E-06
1.63650512695313,1.05339250572427E-05,2.68628978650728E-06
1.64154052734375,1.0569256190816E-05,2.3610416607465E-06
1.64657592773438,1.06045710384434E-05,2.0358098209316E-06
1.651611328125,1.06398858860708E-05,1.71973325455419E-06
1.65664672851563,1.06751884819454E-05,1.41282421336706E-06
1.66168212890625,1.07104910778201E-05,1.11812220342992E-06
1.66671752929688,1.07457854934284E-05,8.69204740946586E-07
1.6717529296875,1.07810799090368E-05,6.38597825338248E-07
